sample_index,timestamp_us,ecg_raw,leads_off,adc_ok
34447,69418968,3,1,1
34448,69420968,0,1,0
34449,69422968,10,0,1
34450,69424968,0,0,0
34451,69426968,6,0,1
34452,69428968,1,0,1
34453,69430968,3,0,1
34454,69432968,3,0,1
34455,69434968,2,0,1
34456,69436968,4,1,1
34457,69438968,4,1,1
34458,69440968,2,1,1
34459,69442969,13,0,1
34460,69444968,3,0,1
34461,69446968,2,0,1
34462,69448968,3,0,1
34463,69450968,17,0,1
34464,69452968,11,0,1
34465,69454968,7,0,1
34466,69456968,5,1,1
34467,69458968,5,1,1
34468,69460968,7,1,1
34469,69462968,5,0,1
34470,69464968,2,0,1
34471,69466968,1,0,1
34472,69468968,3,0,1
34473,69470968,3,0,1
34474,69472968,5,0,1
34475,69474968,0,0,0
34476,69476968,1,1,1
34477,69478968,0,1,0
34478,69480968,0,1,0
34479,69482969,5,0,1
34480,69484968,2,0,1
34481,69486968,0,0,0
34482,69488968,0,0,0
34483,69490968,0,0,0
34484,69492968,4,0,1
34485,69494968,0,0,0
34486,69496968,0,1,0
34487,69498968,1,1,1
34488,69500968,1,1,1
34489,69502968,0,0,0
34490,69504968,0,0,0
34491,69506968,0,0,0
34492,69508968,1,0,1
34493,69510968,0,0,0
34494,69512968,0,0,0
34495,69514968,3,0,1
34496,69516968,1,1,1
34497,69518968,0,1,0
34498,69520968,5,1,1
34499,69522968,0,0,0
34500,69524968,0,0,0
34501,69526968,1,0,1
34502,69528968,0,0,0
34503,69530968,1,0,1
34504,69532968,1,0,1
34505,69534968,0,0,0
34506,69536968,1,1,1
34507,69538968,3,1,1
34508,69540968,0,1,0
34509,69542968,2,0,1
34510,69544968,0,0,0
34511,69546968,0,0,0
34512,69548968,0,0,0
34513,69550968,0,0,0
34514,69552968,3,0,1
34515,69554968,0,0,0
34516,69556968,2,1,1
34517,69558968,0,1,0
34518,69560968,0,1,0
34519,69562969,4,0,1
34520,69564968,0,0,0
34521,69566968,0,0,0
34522,69568968,0,0,0
34523,69570968,0,0,0
34524,69572968,0,0,0
34525,69574968,0,0,0
34526,69576968,0,1,0
34527,69578968,1,1,1
34528,69580968,0,1,0
34529,69582968,2,0,1
34530,69584968,0,0,0
34531,69586968,0,0,0
34532,69588968,2,0,1
34533,69590968,0,0,0
34534,69592968,1,0,1
34535,69594968,0,0,0
34536,69596968,3,1,1
34537,69598968,0,1,0
34538,69600968,0,1,0
34539,69602969,2,0,1
34540,69604968,0,0,0
34541,69606968,0,0,0
34542,69608968,7,0,1
34543,69610968,0,0,0
34544,69612968,0,0,0
34545,69614968,1,0,1
34546,69616968,1,1,1
34547,69618968,22,1,1
34548,69620968,0,1,0
34549,69622968,1,0,1
34550,69624968,3,0,1
34551,69626968,0,0,0
34552,69628968,12,0,1
34553,69630968,0,0,0
34554,69632968,0,0,0
34555,69634968,0,0,0
34556,69636968,0,1,0
34557,69638968,7,1,1
34558,69640968,0,1,0
34559,69642969,11,0,1
34560,69644968,2,0,1
34561,69646968,0,0,0
34562,69648968,9,0,1
34563,69650968,1,0,1
34564,69652968,0,0,0
34565,69654968,0,0,0
34566,69656968,0,1,0
34567,69658968,10,1,1
34568,69660968,2,1,1
34569,69662968,2,0,1
34570,69664968,1,0,1
34571,69666968,0,0,0
34572,69668968,17,0,1
34573,69670968,0,0,0
34574,69672968,4,0,1
34575,69674968,0,0,0
34576,69676968,0,1,0
34577,69678968,16,1,1
34578,69680968,2,1,1
34579,69682969,0,0,0
34580,69684968,0,0,0
34581,69686968,0,0,0
34582,69688968,11,0,1
34583,69690968,0,0,0
34584,69692968,1,0,1
34585,69694968,3,0,1
34586,69696968,0,1,0
34587,69698968,7,1,1
34588,69700968,0,1,0
34589,69702968,0,0,0
34590,69704968,0,0,0
34591,69706968,0,0,0
34592,69708968,5,0,1
34593,69710968,0,0,0
34594,69712968,0,0,0
34595,69714968,0,0,0
34596,69716968,0,1,0
34597,69718968,11,1,1
34598,69720968,0,1,0
34599,69722969,1,0,1
34600,69724968,0,0,0
34601,69726968,0,0,0
34602,69728968,6,0,1
34603,69730968,1,0,1
34604,69732968,3,0,1
34605,69734968,0,0,0
34606,69736968,0,1,0
34607,69738968,8,1,1
34608,69740968,0,1,0
34609,69742968,3,0,1
34610,69744968,1,0,1
34611,69746968,0,0,0
34612,69748968,8,0,1
34613,69750968,0,0,0
34614,69752968,0,0,0
34615,69754968,0,0,0
34616,69756968,1,1,1
34617,69758968,4,1,1
34618,69760968,0,1,0
34619,69762969,4,0,1
34620,69764968,2,0,1
34621,69766968,0,0,0
34622,69768968,7,0,1
34623,69770968,0,0,0
34624,69772968,0,0,0
34625,69774968,0,0,0
34626,69776968,0,1,0
34627,69778968,8,1,1
34628,69780968,0,1,0
34629,69782968,0,0,0
34630,69784968,0,0,0
34631,69786968,0,0,0
34632,69788968,10,0,1
34633,69790968,4,0,1
34634,69792968,0,0,0
34635,69794968,3,0,1
34636,69796968,0,1,0
34637,69798968,3,1,1
34638,69800968,5,0,1
34639,69802969,3,0,1
34640,69804968,2,0,1
34641,69806968,0,0,0
34642,69808968,0,0,0
34643,69810968,4,0,1
34644,69812968,0,0,0
34645,69814968,0,0,0
34646,69816968,0,1,0
34647,69818968,0,1,0
34648,69820968,7,0,1
34649,69822968,0,0,0
34650,69824968,0,0,0
34651,69826968,0,0,0
34652,69828968,0,0,0
34653,69830968,0,0,0
34654,69832968,0,0,0
34655,69834968,0,0,0
34656,69836968,0,1,0
34657,69838968,0,1,0
34658,69840968,6,0,1
34659,69842969,5,0,1
34660,69844968,0,0,0
34661,69846968,0,0,0
34662,69848968,0,0,0
34663,69850968,1,0,1
34664,69852968,3,0,1
34665,69854968,0,0,0
34666,69856968,0,1,0
34667,69858968,6,1,1
34668,69860968,5,1,1
34669,69862968,0,0,0
34670,69864968,1,0,1
34671,69866968,0,0,0
34672,69868968,4,0,1
34673,69870968,0,0,0
34674,69872968,4,0,1
34675,69874968,0,0,0
34676,69876968,0,1,0
34677,69878968,4,1,1
34678,69880968,7,0,1
34679,69882969,2,0,1
34680,69884968,3,0,1
34681,69886968,0,0,0
34682,69888968,0,0,0
34683,69890968,0,0,0
34684,69892968,0,0,0
34685,69894968,2,0,1
34686,69896968,0,1,0
34687,69898968,0,1,0
34688,69900968,1,0,1
34689,69902968,0,0,0
34690,69904968,0,0,0
34691,69906968,0,0,0
34692,69908968,0,0,0
34693,69910968,0,0,0
34694,69912968,0,0,0
34695,69914968,1,0,1
34696,69916968,0,1,0
34697,69918968,0,1,0
34698,69920968,7,0,1
34699,69922969,0,0,0
34700,69924968,3,0,1
34701,69926968,0,0,0
34702,69928968,2,0,1
34703,69930968,1,0,1
34704,69932968,0,0,0
34705,69934968,0,0,0
34706,69936968,3,1,1
34707,69938968,0,1,0
34708,69940968,3,0,1
34709,69942968,0,0,0
34710,69944968,0,0,0
34711,69946968,0,0,0
34712,69948968,0,0,0
34713,69950968,0,0,0
34714,69952968,0,0,0
34715,69954968,0,0,0
34716,69956968,0,1,0
34717,69958968,0,1,0
34718,69960968,1,1,1
34719,69962969,7,0,1
34720,69964968,0,0,0
34721,69966968,0,0,0
34722,69968968,0,0,0
34723,69970968,0,0,0
34724,69972968,0,0,0
34725,69974968,0,0,0
34726,69976968,0,1,0
34727,69978968,0,1,0
34728,69980968,4,0,1
34729,69982968,0,0,0
34730,69984968,1,0,1
34731,69986968,0,0,0
34732,69988968,0,0,0
34733,69990968,0,0,0
34734,69992968,0,0,0
34735,69994968,0,0,0
34736,69996968,71,1,1
34737,69998968,13,1,1
34738,70000968,7,0,1
34739,70002969,5,0,1
34740,70004968,0,0,0
34741,70006968,231,0,1
34742,70008968,856,0,1
34743,70010968,1460,0,1
34744,70012968,1967,0,1
34745,70014968,2281,0,1
34746,70016968,2271,1,1
34747,70018968,1941,1,1
34748,70020968,1187,1,1
34749,70022968,0,0,0
34750,70024968,1,0,1
34751,70026968,61,0,1
34752,70028968,587,0,1
34753,70030968,1206,0,1
34754,70032968,1811,0,1
34755,70034968,2202,0,1
34756,70036968,2351,1,1
34757,70038968,2267,1,1
34758,70040968,1738,0,1
34759,70042969,424,0,1
34760,70044968,75,0,1
34761,70046968,493,0,1
34762,70048968,1157,0,1
34763,70050968,1709,0,1
34764,70052968,2132,0,1
34765,70054968,2349,0,1
34766,70056968,3016,1,1
34767,70058968,4095,1,0
34768,70060968,4095,0,0
34769,70062968,4095,0,0
34770,70064968,3447,0,1
34771,70066968,2889,0,1
34772,70068968,2402,0,1
34773,70070968,2004,0,1
34774,70072968,1780,0,1
34775,70074968,1707,0,1
34776,70076968,2197,1,1
34777,70078968,3807,1,1
34778,70080968,4095,1,0
34779,70082969,2845,0,1
34780,70084968,1877,0,1
34781,70086968,1484,0,1
34782,70088968,1399,0,1
34783,70090968,1478,0,1
34784,70092968,1675,0,1
34785,70094968,1865,0,1
34786,70096968,2363,1,1
34787,70098968,3517,1,1
34788,70100968,4095,1,0
34789,70102968,2016,0,1
34790,70104968,966,0,1
34791,70106968,722,0,1
34792,70108968,921,0,1
34793,70110968,1269,0,1
34794,70112968,1693,0,1
34795,70114968,2003,0,1
34796,70116968,2491,1,1
34797,70118968,3485,1,1
34798,70120968,3975,0,1
34799,70122969,2159,0,1
34800,70124968,1231,0,1
34801,70126968,999,0,1
34802,70128968,1171,0,1
34803,70130968,1395,0,1
34804,70132968,1723,0,1
34805,70134968,1983,0,1
34806,70136968,2595,1,1
34807,70138968,4095,1,0
34808,70140968,4095,0,0
34809,70142968,2859,0,1
34810,70144968,1948,0,1
34811,70146968,1559,0,1
34812,70148968,1470,0,1
34813,70150968,1509,0,1
34814,70152968,1675,0,1
34815,70154968,1851,0,1
34816,70156968,2525,1,1
34817,70158968,4095,1,0
34818,70160968,4095,1,0
34819,70162969,3029,0,1
34820,70164968,2084,0,1
34821,70166968,1635,0,1
34822,70168968,1500,0,1
34823,70170968,1497,0,1
34824,70172968,1627,0,1
34825,70174968,1811,0,1
34826,70176968,2839,1,1
34827,70178968,4095,1,0
34828,70180968,4095,0,0
34829,70182968,4095,0,0
34830,70184968,4095,0,0
34831,70186968,4095,0,0
34832,70188968,3451,0,1
34833,70190968,2713,0,1
34834,70192968,2166,0,1
34835,70194968,1801,0,1
34836,70196968,2323,1,1
34837,70198968,4095,1,0
34838,70200968,4095,0,0
34839,70202969,4095,0,0
34840,70204968,4095,0,0
34841,70206968,3606,0,1
34842,70208968,2917,0,1
34843,70210968,2312,0,1
34844,70212968,1899,0,1
34845,70214968,1691,0,1
34846,70216968,2055,1,1
34847,70218968,3357,1,1
34848,70220968,4095,0,0
34849,70222968,3431,0,1
34850,70224968,2669,0,1
34851,70226968,2147,0,1
34852,70228968,1847,0,1
34853,70230968,1655,0,1
34854,70232968,1651,0,1
34855,70234968,1733,0,1
34856,70236968,2447,1,1
34857,70238968,4095,1,0
34858,70240968,4095,0,0
34859,70242969,3546,0,1
34860,70244968,2699,0,1
34861,70246968,2141,0,1
34862,70248968,1813,0,1
34863,70250968,1622,0,1
34864,70252968,1629,0,1
34865,70254968,1717,0,1
34866,70256968,2523,1,1
34867,70258968,4095,1,0
34868,70260968,4095,0,0
34869,70262968,3880,0,1
34870,70264968,3028,0,1
34871,70266968,2428,0,1
34872,70268968,2011,0,1
34873,70270968,1727,0,1
34874,70272968,1643,0,1
34875,70274968,1688,0,1
34876,70276968,2549,1,1
34877,70278968,4095,1,0
34878,70280968,4095,0,0
34879,70282969,4095,0,0
34880,70284968,3764,0,1
34881,70286968,3081,0,1
34882,70288968,2513,0,1
34883,70290968,2009,0,1
34884,70292968,1739,0,1
34885,70294968,1637,0,1
34886,70296968,2461,1,1
34887,70298968,4095,1,0
34888,70300968,4095,0,0
34889,70302968,4095,0,0
34890,70304968,3571,0,1
34891,70306968,2919,0,1
34892,70308968,2361,0,1
34893,70310968,1938,0,1
34894,70312968,1703,0,1
34895,70314968,1636,1,1
34896,70316968,2421,1,1
34897,70318968,4095,1,0
34898,70320968,4095,0,0
34899,70322969,3803,0,1
34900,70324968,2971,0,1
34901,70326968,2426,0,1
34902,70328968,2005,0,1
34903,70330968,1753,0,1
34904,70332968,1676,0,1
34905,70334968,1715,1,1
34906,70336968,2212,1,1
34907,70338968,3385,1,1
34908,70340968,3943,0,1
34909,70342968,2834,0,1
34910,70344968,2106,0,1
34911,70346968,1764,0,1
34912,70348968,1624,0,1
34913,70350968,1618,0,1
34914,70352968,1721,0,1
34915,70354968,1850,1,1
34916,70356968,2313,1,1
34917,70358968,3269,1,1
34918,70360968,3044,0,1
34919,70362969,1241,0,1
34920,70364968,427,0,1
34921,70366968,423,0,1
34922,70368968,812,0,1
34923,70370968,1316,0,1
34924,70372968,1805,0,1
34925,70374968,2143,1,1
34926,70376968,2515,1,1
34927,70378968,3017,1,1
34928,70380968,2382,0,1
34929,70382968,923,0,1
34930,70384968,368,0,1
34931,70386968,525,0,1
34932,70388968,979,0,1
34933,70390968,1495,0,1
34934,70392968,1947,0,1
34935,70394968,2223,1,1
34936,70396968,2376,1,1
34937,70398968,2437,1,1
34938,70400968,2123,0,1
34939,70402969,1375,0,1
34940,70404968,1101,0,1
34941,70406968,1305,0,1
34942,70408968,1591,0,1
34943,70410968,1883,0,1
34944,70412968,2151,0,1
34945,70414968,2254,1,1
34946,70416968,265,1,1
34947,70418968,0,1,0
34948,70420968,0,0,0
34949,70422968,0,0,0
34950,70424968,3,0,1
34951,70426968,0,0,0
34952,70428968,0,0,0
34953,70430968,0,0,0
34954,70432968,0,0,0
34955,70434968,0,1,0
34956,70436968,0,1,0
34957,70438968,0,1,0
34958,70440968,2,0,1
34959,70442969,8,0,1
34960,70444968,3,0,1
34961,70446968,0,0,0
34962,70448968,0,0,0
34963,70450968,2,0,1
34964,70452968,1,0,1
34965,70454968,1,1,1
34966,70456968,0,1,0
34967,70458968,3,1,1
34968,70460968,1,0,1
34969,70462968,0,0,0
34970,70464968,3,0,1
34971,70466968,0,0,0
34972,70468968,2,0,1
34973,70470968,0,0,0
34974,70472968,4,0,1
34975,70474968,1,1,1
34976,70476968,0,1,0
34977,70478968,0,1,0
34978,70480968,0,0,0
34979,70482969,4,0,1
34980,70484968,0,0,0
34981,70486968,0,0,0
34982,70488968,0,0,0
34983,70490968,4,0,1
34984,70492968,0,0,0
34985,70494968,5,1,1
34986,70496968,0,1,0
34987,70498968,2,1,1
34988,70500968,0,0,0
34989,70502968,0,0,0
34990,70504968,0,0,0
34991,70506968,0,0,0
34992,70508968,0,0,0
34993,70510968,2,0,1
34994,70512968,4,0,1
34995,70514968,0,1,0
34996,70516968,1,1,1
34997,70518968,5,1,1
34998,70520968,0,0,0
34999,70522968,3,0,1
35000,70524968,0,0,0
35001,70526968,0,0,0
35002,70528968,0,0,0
35003,70530968,0,0,0
35004,70532968,1,0,1
35005,70534968,1,1,1
35006,70536968,12,1,1
35007,70538968,0,1,0
35008,70540968,0,0,0
35009,70542968,2,0,1
35010,70544968,0,0,0
35011,70546968,13,0,1
35012,70548968,0,0,0
35013,70550968,1,0,1
35014,70552968,0,0,0
35015,70554968,0,1,0
35016,70556968,9,1,1
35017,70558968,0,1,0
35018,70560968,0,0,0
35019,70562969,3,0,1
35020,70564968,0,0,0
35021,70566968,5,0,1
35022,70568968,0,0,0
35023,70570968,0,0,0
35024,70572968,1,0,1
35025,70574968,0,1,0
35026,70576968,4,1,1
35027,70578968,0,1,0
35028,70580968,0,0,0
35029,70582968,0,0,0
35030,70584968,0,0,0
35031,70586968,5,0,1
35032,70588968,0,0,0
35033,70590968,0,0,0
35034,70592968,2,0,1
35035,70594968,0,1,0
35036,70596968,10,1,1
35037,70598968,0,1,0
35038,70600968,0,0,0
35039,70602969,0,0,0
35040,70604968,0,0,0
35041,70606968,8,0,1
35042,70608968,0,0,0
35043,70610968,1,0,1
35044,70612968,0,0,0
35045,70614968,0,1,0
35046,70616968,5,1,1
35047,70618968,0,1,0
35048,70620968,0,0,0
35049,70622968,0,0,0
35050,70624968,0,0,0
35051,70626968,3,0,1
35052,70628968,0,0,0
35053,70630968,0,0,0
35054,70632968,1,0,1
35055,70634968,0,1,0
35056,70636968,3,1,1
35057,70638968,0,1,0
35058,70640968,0,0,0
35059,70642969,0,0,0
35060,70644968,1,0,1
35061,70646968,5,0,1
35062,70648968,0,0,0
35063,70650968,3,0,1
35064,70652968,4,0,1
35065,70654968,0,1,0
35066,70656968,14,1,1
35067,70658968,1,1,1
35068,70660968,1,0,1
35069,70662968,2,0,1
35070,70664968,0,0,0
35071,70666968,9,0,1
35072,70668968,0,0,0
35073,70670968,3,0,1
35074,70672968,0,0,0
35075,70674968,0,1,0
35076,70676968,7,1,1
35077,70678968,0,1,0
35078,70680968,0,0,0
35079,70682969,4,0,1
35080,70684968,0,0,0
35081,70686968,4,0,1
35082,70688968,0,0,0
35083,70690968,0,0,0
35084,70692968,0,0,0
35085,70694968,0,1,0
35086,70696968,9,1,1
35087,70698968,0,1,0
35088,70700968,1,0,1
35089,70702968,0,0,0
35090,70704968,0,0,0
35091,70706968,5,0,1
35092,70708968,0,0,0
35093,70710968,0,0,0
35094,70712968,5,0,1
35095,70714968,0,1,0
35096,70716968,5,1,1
35097,70718968,0,1,0
35098,70720968,0,0,0
35099,70722969,4,0,1
35100,70724968,0,0,0
35101,70726968,0,0,0
35102,70728968,0,0,0
35103,70730968,0,0,0
35104,70732968,0,0,0
35105,70734968,0,1,0
35106,70736968,0,1,0
35107,70738968,0,1,0
35108,70740968,0,0,0
35109,70742968,4,0,1
35110,70744968,0,0,0
35111,70746968,0,0,0
35112,70748968,1,0,1
35113,70750968,0,0,0
35114,70752968,1,0,1
35115,70754968,0,1,0
35116,70756968,0,1,0
35117,70758968,0,1,0
35118,70760968,0,0,0
35119,70762969,1,0,1
35120,70764968,0,0,0
35121,70766968,0,0,0
35122,70768968,3,0,1
35123,70770968,0,0,0
35124,70772968,5,0,1
35125,70774968,0,1,0
35126,70776968,1,1,1
35127,70778968,0,1,0
35128,70780968,0,0,0
35129,70782968,0,0,0
35130,70784968,1,0,1
35131,70786968,6,0,1
35132,70788968,5,0,1
35133,70790968,0,0,0
35134,70792968,6,0,1
35135,70794968,0,1,0
35136,70796968,3,1,1
35137,70798968,0,1,0
35138,70800968,1,0,1
35139,70802969,8,0,1
35140,70804968,0,0,0
35141,70806968,0,0,0
35142,70808968,0,0,0
35143,70810968,2,0,1
35144,70812968,4,0,1
35145,70814968,1,1,1
35146,70816968,2,1,1
35147,70818968,0,1,0
35148,70820968,0,0,0
35149,70822968,2,0,1
35150,70824968,2,0,1
35151,70826968,0,0,0
35152,70828968,3,0,1
35153,70830968,5,0,1
35154,70832968,3,0,1
35155,70834968,2,1,1
35156,70836968,0,1,0
35157,70838968,0,1,0
35158,70840968,1,0,1
35159,70842969,3,0,1
35160,70844968,0,0,0
35161,70846968,0,0,0
35162,70848968,0,0,0
35163,70850968,0,0,0
35164,70852968,1,0,1
35165,70854968,27,1,1
35166,70856968,4,1,1
35167,70858968,0,1,0
35168,70860968,0,0,0
35169,70862968,4,0,1
35170,70864968,0,0,0
35171,70866968,1,0,1
35172,70868968,0,0,0
35173,70870968,2,0,1
35174,70872968,4,0,1
35175,70874968,297,1,1
35176,70876968,6,1,1
35177,70878968,4,1,1
35178,70880968,0,0,0
35179,70882969,7,0,1
35180,70884968,0,0,0
35181,70886968,2,0,1
35182,70888968,0,0,0
35183,70890968,0,0,0
35184,70892968,35,0,1
35185,70894968,431,1,1
35186,70896968,0,1,0
35187,70898968,2,1,1
35188,70900968,0,0,0
35189,70902968,5,0,1
35190,70904968,0,0,0
35191,70906968,0,0,0
35192,70908968,2,0,1
35193,70910968,1,0,1
35194,70912968,5,0,1
35195,70914968,171,1,1
35196,70916968,0,1,0
35197,70918968,4,1,1
35198,70920968,2,0,1
35199,70922968,0,0,0
35200,70924968,1,0,1
35201,70926968,0,0,0
35202,70928968,1,0,1
35203,70930968,5,0,1
35204,70932968,1,0,1
35205,70934968,0,1,0
35206,70936968,3,1,1
35207,70938968,2,1,1
35208,70940968,2,0,1
35209,70942968,3,0,1
35210,70944968,0,0,0
35211,70946968,3,0,1
35212,70948968,1,0,1
35213,70950968,1,0,1
35214,70952968,3,0,1
35215,70954968,3,1,1
35216,70956968,4,1,1
35217,70958968,1,1,1
35218,70960968,4,0,1
35219,70962968,2,0,1
35220,70964968,5,0,1
35221,70966968,3,0,1
35222,70968968,1,0,1
35223,70970968,6,0,1
35224,70972968,2,0,1
35225,70974968,22,1,1
35226,70976968,3,1,1
35227,70978968,3,1,1
35228,70980968,2,0,1
35229,70982968,0,0,0
35230,70984968,0,0,0
35231,70986968,1,0,1
35232,70988968,3,0,1
35233,70990968,5,0,1
35234,70992968,7,0,1
35235,70994968,91,1,1
35236,70996968,5,1,1
35237,70998968,5,1,1
35238,71000968,7,0,1
35239,71002968,6,0,1
35240,71004968,7,0,1
35241,71006968,2,0,1
35242,71008968,5,0,1
35243,71010968,6,0,1
35244,71012968,8,0,1
35245,71014968,331,1,1
35246,71016968,1,1,1
35247,71018968,0,1,0
35248,71020968,2,0,1
35249,71022968,3,0,1
35250,71024968,0,0,0
35251,71026968,13,0,1
35252,71028968,1,0,1
35253,71030968,3,0,1
35254,71032968,45,0,1
35255,71034968,420,1,1
35256,71036968,23,1,1
35257,71038968,5,1,1
35258,71040968,10,0,1
35259,71042968,0,0,0
35260,71044968,0,0,0
35261,71046968,19,0,1
35262,71048968,1,0,1
35263,71050968,0,0,0
35264,71052968,41,0,1
35265,71054968,424,1,1
35266,71056968,10,1,1
35267,71058968,0,1,0
35268,71060968,0,0,0
35269,71062968,5,0,1
35270,71064968,0,0,0
35271,71066968,11,0,1
35272,71068968,2,0,1
35273,71070968,9,0,1
35274,71072968,133,0,1
35275,71074968,563,1,1
35276,71076968,7,1,1
35277,71078968,0,1,0
35278,71080968,0,0,0
35279,71082968,1,0,1
35280,71084968,1,0,1
35281,71086968,9,0,1
35282,71088968,5,0,1
35283,71090968,3,0,1
35284,71092968,229,0,1
35285,71094968,683,1,1
35286,71096968,19,1,1
35287,71098968,0,1,0
35288,71100968,3,0,1
35289,71102968,0,0,0
35290,71104968,4,0,1
35291,71106968,11,0,1
35292,71108968,0,0,0
35293,71110968,0,0,0
35294,71112968,225,0,1
35295,71114968,676,1,1
35296,71116968,13,1,1
35297,71118968,4,1,1
35298,71120968,0,0,0
35299,71122968,3,0,1
35300,71124968,7,0,1
35301,71126968,4,0,1
35302,71128968,7,0,1
35303,71130968,1,0,1
35304,71132968,3,0,1
35305,71134968,238,1,1
35306,71136968,13,1,1
35307,71138968,1,1,1
35308,71140968,0,0,0
35309,71142968,7,0,1
35310,71144968,4,0,1
35311,71146968,7,0,1
35312,71148968,1,0,1
35313,71150968,1,0,1
35314,71152968,100,0,1
35315,71154968,447,1,1
35316,71156968,11,1,1
35317,71158968,5,1,1
35318,71160968,4,0,1
35319,71162968,5,0,1
35320,71164968,7,0,1
35321,71166968,10,0,1
35322,71168968,8,0,1
35323,71170968,7,0,1
35324,71172968,0,0,0
35325,71174968,79,1,1
35326,71176968,11,1,1
35327,71178968,0,1,0
35328,71180968,5,0,1
35329,71182968,7,0,1
35330,71184968,4,0,1
35331,71186968,7,0,1
35332,71188968,2,0,1
35333,71190968,3,0,1
35334,71192968,5,0,1
35335,71194968,7,1,1
35336,71196968,14,1,1
35337,71198968,3,1,1
35338,71200968,4,0,1
35339,71202968,0,0,0
35340,71204968,0,0,0
35341,71206968,7,0,1
35342,71208968,0,0,0
35343,71210968,7,0,1
35344,71212968,176,0,1
35345,71214968,501,1,1
35346,71216968,2,1,1
35347,71218968,3,1,1
35348,71220968,5,0,1
35349,71222968,5,0,1
35350,71224968,3,0,1
35351,71226968,0,0,0
35352,71228968,0,0,0
35353,71230968,4,0,1
35354,71232968,0,0,0
35355,71234968,0,1,0
35356,71236968,0,1,0
35357,71238968,0,1,0
35358,71240968,4,0,1
35359,71242968,2,0,1
35360,71244968,0,0,0
35361,71246968,0,0,0
35362,71248968,4,0,1
35363,71250968,5,0,1
35364,71252968,1,0,1
35365,71254968,120,1,1
35366,71256968,0,1,0
35367,71258968,5,1,1
35368,71260968,7,0,1
35369,71262968,0,0,0
35370,71264968,0,0,0
35371,71266968,1,0,1
35372,71268968,0,0,0
35373,71270968,2,0,1
35374,71272968,5,0,1
35375,71274968,77,1,1
35376,71276968,0,1,0
35377,71278968,1,1,1
35378,71280968,6,0,1
35379,71282968,1,0,1
35380,71284968,0,0,0
35381,71286968,7,0,1
35382,71288968,4,0,1
35383,71290968,0,0,0
35384,71292968,183,0,1
35385,71294968,539,1,1
35386,71296968,8,1,1
35387,71298968,1,1,1
35388,71300968,0,0,0
35389,71302968,3,0,1
35390,71304968,0,0,0
35391,71306968,1,0,1
35392,71308968,5,0,1
35393,71310968,0,0,0
35394,71312968,4,0,1
35395,71314968,187,1,1
35396,71316968,1,1,1
35397,71318968,1,1,1
35398,71320968,3,0,1
35399,71322968,7,0,1
35400,71324968,0,0,0
35401,71326968,0,0,0
35402,71328968,0,0,0
35403,71330968,0,0,0
35404,71332968,5,0,1
35405,71334968,199,1,1
35406,71336968,4,1,1
35407,71338968,0,1,0
35408,71340968,0,0,0
35409,71342968,9,0,1
35410,71344968,5,0,1
35411,71346968,4,0,1
35412,71348968,5,0,1
35413,71350968,0,0,0
35414,71352968,217,0,1
35415,71354968,565,1,1
35416,71356968,2,1,1
35417,71358968,1,1,1
35418,71360968,4,0,1
35419,71362968,5,0,1
35420,71364968,5,0,1
35421,71366968,1,0,1
35422,71368968,2,0,1
35423,71370968,0,0,0
35424,71372968,8,0,1
35425,71374968,158,1,1
35426,71376968,5,1,1
35427,71378968,4,1,1
35428,71380968,5,0,1
35429,71382968,5,0,1
35430,71384968,3,0,1
35431,71386968,0,0,0
35432,71388968,6,0,1
35433,71390968,4,0,1
35434,71392968,23,0,1
35435,71394968,251,1,1
35436,71396968,0,1,0
35437,71398968,1,1,1
35438,71400968,1,0,1
35439,71402968,0,0,0
35440,71404968,2,0,1
35441,71406968,0,0,0
35442,71408968,1,0,1
35443,71410968,0,0,0
35444,71412968,26,0,1
35445,71414968,219,1,1
35446,71416968,1,1,1
35447,71418968,5,1,1
35448,71420968,6,0,1
35449,71422968,7,0,1
35450,71424968,0,0,0
35451,71426968,0,0,0
35452,71428968,6,0,1
35453,71430968,5,0,1
35454,71432968,4,0,1
35455,71434968,123,1,1
35456,71436968,6,1,1
35457,71438968,5,1,1
35458,71440968,0,0,0
35459,71442968,0,0,0
35460,71444968,13,0,1
35461,71446968,5,0,1
35462,71448968,3,0,1
35463,71450968,0,0,0
35464,71452968,2,0,1
35465,71454968,19,1,1
35466,71456968,1,1,1
35467,71458968,5,1,1
35468,71460968,5,0,1
35469,71462968,0,0,0
35470,71464968,7,0,1
35471,71466968,0,0,0
35472,71468968,0,0,0
35473,71470968,5,0,1
35474,71472968,7,0,1
35475,71474968,9,1,1
35476,71476968,4,1,1
35477,71478968,2,1,1
35478,71480968,6,0,1
35479,71482968,0,0,0
35480,71484968,11,0,1
35481,71486968,1,0,1
35482,71488968,0,0,0
35483,71490968,1,0,1
35484,71492968,141,0,1
35485,71494968,390,1,1
35486,71496968,2,1,1
35487,71498968,1,1,1
35488,71500968,4,0,1
35489,71502968,3,0,1
35490,71504968,17,0,1
35491,71506968,1,0,1
35492,71508968,0,0,0
35493,71510968,7,0,1
35494,71512968,1,0,1
35495,71514968,57,1,1
35496,71516968,4,1,1
35497,71518968,4,1,1
35498,71520968,4,0,1
35499,71522968,7,0,1
35500,71524968,9,0,1
35501,71526968,4,0,1
35502,71528968,5,0,1
35503,71530968,6,0,1
35504,71532968,331,0,1
35505,71534968,620,1,1
35506,71536968,5,1,1
35507,71538968,8,1,1
35508,71540968,0,0,0
35509,71542968,7,0,1
35510,71544968,13,0,1
35511,71546968,5,0,1
35512,71548968,5,0,1
35513,71550968,5,0,1
35514,71552968,61,0,1
35515,71554968,239,1,1
35516,71556968,0,1,0
35517,71558968,1,1,1
35518,71560968,0,0,0
35519,71562968,1,0,1
35520,71564968,11,0,1
35521,71566968,1,0,1
35522,71568968,5,0,1
35523,71570968,7,0,1
35524,71572968,7,0,1
35525,71574968,91,1,1
35526,71576968,3,1,1
35527,71578968,0,1,0
35528,71580968,0,0,0
35529,71582968,0,0,0
35530,71584968,11,0,1
35531,71586968,1,0,1
35532,71588968,1,0,1
35533,71590968,3,0,1
35534,71592968,3,0,1
35535,71594968,106,1,1
35536,71596968,3,1,1
35537,71598968,0,1,0
35538,71600968,4,0,1
35539,71602968,0,0,0
35540,71604968,7,0,1
35541,71606968,2,0,1
35542,71608968,1,0,1
35543,71610968,1,0,1
35544,71612968,263,0,1
35545,71614968,492,1,1
35546,71616968,2,1,1
35547,71618968,0,1,0
35548,71620968,4,0,1
35549,71622968,5,0,1
35550,71624968,9,0,1
35551,71626968,4,0,1
35552,71628968,0,0,0
35553,71630968,0,0,0
35554,71632968,5,0,1
35555,71634968,83,1,1
35556,71636968,0,1,0
35557,71638968,0,1,0
35558,71640968,2,0,1
35559,71642968,1,0,1
35560,71644968,1,0,1
35561,71646968,3,0,1
35562,71648968,0,0,0
35563,71650968,5,0,1
35564,71652968,2,0,1
35565,71654968,0,1,0
35566,71656968,7,1,1
35567,71658968,1,1,1
35568,71660968,6,0,1
35569,71662968,3,0,1
35570,71664968,1,0,1
35571,71666968,0,0,0
35572,71668968,1,0,1
35573,71670968,1,0,1
35574,71672968,173,0,1
35575,71674968,334,1,1
35576,71676968,5,1,1
35577,71678968,5,1,1
35578,71680968,0,0,0
35579,71682968,0,0,0
35580,71684968,0,0,0
35581,71686968,0,0,0
35582,71688968,4,0,1
35583,71690968,1,0,1
35584,71692968,360,0,1
35585,71694968,544,1,1
35586,71696968,1,1,1
35587,71698968,4,1,1
35588,71700968,0,0,0
35589,71702968,7,0,1
35590,71704968,7,0,1
35591,71706968,4,0,1
35592,71708968,2,0,1
35593,71710968,3,0,1
35594,71712968,319,0,1
35595,71714968,535,1,1
35596,71716968,0,1,0
35597,71718968,5,1,1
35598,71720968,3,0,1
35599,71722968,4,0,1
35600,71724968,1,0,1
35601,71726968,0,0,0
35602,71728968,7,0,1
35603,71730968,0,0,0
35604,71732968,116,0,1
35605,71734968,163,1,1
35606,71736968,3,1,1
35607,71738968,5,1,1
35608,71740968,4,0,1
35609,71742968,2,0,1
35610,71744968,0,0,0
35611,71746968,7,0,1
35612,71748968,7,0,1
35613,71750968,0,0,0
35614,71752968,243,0,1
35615,71754968,329,1,1
35616,71756968,0,1,0
35617,71758968,3,1,1
35618,71760968,2,0,1
35619,71762968,8,0,1
35620,71764968,0,0,0
35621,71766968,6,0,1
35622,71768968,0,0,0
35623,71770968,1,0,1
35624,71772968,287,0,1
35625,71774968,372,1,1
35626,71776968,1,1,1
35627,71778968,5,1,1
35628,71780968,0,0,0
35629,71782968,5,0,1
35630,71784968,1,0,1
35631,71786968,5,0,1
35632,71788968,0,0,0
35633,71790968,5,0,1
35634,71792968,91,0,1
35635,71794968,51,1,1
35636,71796968,1,1,1
35637,71798968,1,1,1
35638,71800968,7,0,1
35639,71802968,8,0,1
35640,71804968,3,0,1
35641,71806968,1,0,1
35642,71808968,1,0,1
35643,71810968,2,0,1
35644,71812968,215,0,1
35645,71814968,217,1,1
35646,71816968,4,1,1
35647,71818968,4,1,1
35648,71820968,5,0,1
35649,71822968,7,0,1
35650,71824968,1,0,1
35651,71826968,0,0,0
35652,71828968,4,0,1
35653,71830968,5,0,1
35654,71832968,1,0,1
35655,71834968,1,1,1
35656,71836968,4,1,1
35657,71838968,4,0,1
35658,71840968,0,0,0
35659,71842968,0,0,0
35660,71844968,0,0,0
35661,71846968,3,0,1
35662,71848968,5,0,1
35663,71850968,0,0,0
35664,71852968,121,0,1
35665,71854968,62,1,1
35666,71856968,0,1,0
35667,71858968,5,0,1
35668,71860968,3,0,1
35669,71862968,7,0,1
35670,71864968,0,0,0
35671,71866968,0,0,0
35672,71868968,3,0,1
35673,71870968,3,0,1
35674,71872968,298,0,1
35675,71874968,314,1,1
35676,71876968,5,1,1
35677,71878968,9,0,1
35678,71880968,1,0,1
35679,71882968,3,0,1
35680,71884968,2,0,1
35681,71886968,0,0,0
35682,71888968,5,0,1
35683,71890968,0,0,0
35684,71892968,5,0,1
35685,71894968,1,1,1
35686,71896968,0,1,0
35687,71898968,6,0,1
35688,71900968,0,0,0
35689,71902968,1,0,1
35690,71904968,2,0,1
35691,71906968,0,0,0
35692,71908968,1,0,1
35693,71910968,8,0,1
35694,71912968,206,0,1
35695,71914968,5,1,1
35696,71916968,4,1,1
35697,71918968,11,0,1
35698,71920968,3,0,1
35699,71922968,8,0,1
35700,71924968,5,0,1
35701,71926968,3,0,1
35702,71928968,0,0,0
35703,71930968,3,0,1
35704,71932968,4,0,1
35705,71934968,2,1,1
35706,71936968,0,1,0
35707,71938968,10,0,1
35708,71940968,2,0,1
35709,71942968,9,0,1
35710,71944968,5,0,1
35711,71946968,2,0,1
35712,71948968,7,0,1
35713,71950968,4,0,1
35714,71952968,8,0,1
35715,71954968,4,1,1
35716,71956968,0,1,0
35717,71958968,1,0,1
35718,71960968,7,0,1
35719,71962968,5,0,1
35720,71964968,7,0,1
35721,71966968,3,0,1
35722,71968968,5,0,1
35723,71970968,3,0,1
35724,71972968,7,0,1
35725,71974968,10,1,1
35726,71976968,5,1,1
35727,71978968,0,0,0
35728,71980968,1,0,1
35729,71982968,6,0,1
35730,71984968,6,0,1
35731,71986968,3,0,1
35732,71988968,7,0,1
35733,71990968,4,0,1
35734,71992968,1,0,1
35735,71994968,3,1,1
35736,71996968,2,1,1
35737,71998968,6,0,1
35738,72000968,8,0,1
35739,72002968,4,0,1
35740,72004968,7,0,1
35741,72006968,2,0,1
35742,72008968,5,0,1
35743,72010968,7,0,1
35744,72012968,9,0,1
35745,72014968,12,1,1
35746,72016968,2,1,1
35747,72018968,7,0,1
35748,72020968,1,0,1
35749,72022968,9,0,1
35750,72024968,17,0,1
35751,72026968,7,0,1
35752,72028968,4,0,1
35753,72030968,6,0,1
35754,72032968,5,0,1
35755,72034968,18,1,1
35756,72036968,1,1,1
35757,72038968,0,0,0
35758,72040968,1,0,1
35759,72042968,5,0,1
35760,72044968,10,0,1
35761,72046968,4,0,1
35762,72048968,0,0,0
35763,72050968,3,0,1
35764,72052968,67,0,1
35765,72054968,9,1,1
35766,72056968,4,1,1
35767,72058968,2,0,1
35768,72060968,5,0,1
35769,72062968,5,0,1
35770,72064968,7,0,1
35771,72066968,5,0,1
35772,72068968,2,0,1
35773,72070968,28,0,1
35774,72072968,491,0,1
35775,72074968,485,1,1
35776,72076968,4,1,1
35777,72078968,0,0,0
35778,72080968,3,0,1
35779,72082968,6,0,1
35780,72084968,17,0,1
35781,72086968,0,0,0
35782,72088968,0,0,0
35783,72090968,83,0,1
35784,72092968,595,0,1
35785,72094968,499,1,1
35786,72096968,4,1,1
35787,72098968,3,0,1
35788,72100968,5,0,1
35789,72102968,3,0,1
35790,72104968,5,0,1
35791,72106968,0,0,0
35792,72108968,4,0,1
35793,72110968,81,0,1
35794,72112968,594,0,1
35795,72114968,456,1,1
35796,72116968,0,1,0
35797,72118968,0,0,0
35798,72120968,3,0,1
35799,72122968,1,0,1
35800,72124968,9,0,1
35801,72126968,1,0,1
35802,72128968,7,0,1
35803,72130968,5,0,1
35804,72132968,117,0,1
35805,72134968,10,1,1
35806,72136968,0,1,0
35807,72138968,0,0,0
35808,72140968,0,0,0
35809,72142968,5,0,1
35810,72144968,6,0,1
35811,72146968,1,0,1
35812,72148968,2,0,1
35813,72150968,3,0,1
35814,72152968,405,0,1
35815,72154968,220,1,1
35816,72156968,0,1,0
35817,72158968,3,0,1
35818,72160968,2,0,1
35819,72162968,2,0,1
35820,72164968,0,0,0
35821,72166968,1,0,1
35822,72168968,4,0,1
35823,72170968,7,0,1
35824,72172968,28,0,1
35825,72174968,0,1,0
35826,72176968,0,1,0
35827,72178968,1,0,1
35828,72180968,2,0,1
35829,72182968,1,0,1
35830,72184968,0,0,0
35831,72186968,0,0,0
35832,72188968,6,0,1
35833,72190968,1,0,1
35834,72192968,3,0,1
35835,72194968,0,1,0
35836,72196968,5,1,1
35837,72198968,5,0,1
35838,72200968,3,0,1
35839,72202968,2,0,1
35840,72204968,7,0,1
35841,72206968,1,0,1
35842,72208968,1,0,1
35843,72210968,5,0,1
35844,72212968,2,0,1
35845,72214968,7,1,1
35846,72216968,3,1,1
35847,72218968,3,0,1
35848,72220968,5,0,1
35849,72222968,6,0,1
35850,72224968,5,0,1
35851,72226968,1,0,1
35852,72228968,0,0,0
35853,72230968,3,0,1
35854,72232968,313,0,1
35855,72234968,47,1,1
35856,72236968,3,1,1
35857,72238968,3,0,1
35858,72240968,4,0,1
35859,72242968,4,0,1
35860,72244968,0,0,0
35861,72246968,0,0,0
35862,72248968,0,0,0
35863,72250968,0,0,0
35864,72252968,39,0,1
35865,72254968,0,1,0
35866,72256968,1,1,1
35867,72258968,0,0,0
35868,72260968,0,0,0
35869,72262968,3,0,1
35870,72264968,0,0,0
35871,72266968,0,0,0
35872,72268968,4,0,1
35873,72270968,3,0,1
35874,72272968,391,0,1
35875,72274968,93,1,1
35876,72276968,3,1,1
35877,72278968,3,0,1
35878,72280968,6,0,1
35879,72282968,1,0,1
35880,72284968,8,0,1
35881,72286968,0,0,0
35882,72288968,3,0,1
35883,72290968,1,0,1
35884,72292968,263,0,1
35885,72294968,3,1,1
35886,72296968,4,1,1
35887,72298968,0,0,0
35888,72300968,5,0,1
35889,72302968,7,0,1
35890,72304968,3,0,1
35891,72306968,18,0,1
35892,72308968,0,0,0
35893,72310968,38,0,1
35894,72312968,507,0,1
35895,72314968,171,1,1
35896,72316968,2,1,1
35897,72318968,3,0,1
35898,72320968,5,0,1
35899,72322968,7,0,1
35900,72324968,3,0,1
35901,72326968,0,0,0
35902,72328968,2,0,1
35903,72330968,7,0,1
35904,72332968,72,0,1
35905,72334968,0,1,0
35906,72336968,0,1,0
35907,72338968,5,0,1
35908,72340968,1,0,1
35909,72342968,4,0,1
35910,72344968,0,0,0
35911,72346968,3,0,1
35912,72348968,6,0,1
35913,72350968,1,0,1
35914,72352968,9,0,1
35915,72354968,3,1,1
35916,72356968,0,1,0
35917,72358968,2,0,1
35918,72360968,5,0,1
35919,72362968,2,0,1
35920,72364968,1,0,1
35921,72366968,3,0,1
35922,72368968,3,0,1
35923,72370968,0,0,0
35924,72372968,379,1,1
35925,72374968,3,1,1
35926,72376968,2,1,1
35927,72378968,3,0,1
35928,72380968,0,0,0
35929,72382968,18,0,1
35930,72384968,3,0,1
35931,72386968,0,0,0
35932,72388968,6,0,1
35933,72390968,0,0,0
35934,72392968,74,1,1
35935,72394968,3,1,1
35936,72396968,0,1,0
35937,72398968,0,0,0
35938,72400968,4,0,1
35939,72402968,18,0,1
35940,72404968,1,0,1
35941,72406968,6,0,1
35942,72408968,6,0,1
35943,72410968,1,0,1
35944,72412968,393,1,1
35945,72414968,1,1,1
35946,72416968,1,1,1
35947,72418968,5,0,1
35948,72420968,0,0,0
35949,72422968,10,0,1
35950,72424968,2,0,1
35951,72426968,3,0,1
35952,72428968,2,0,1
35953,72430968,2,0,1
35954,72432968,104,1,1
35955,72434968,2,1,1
35956,72436968,1,1,1
35957,72438968,3,0,1
35958,72440968,5,0,1
35959,72442968,11,0,1
35960,72444968,2,0,1
35961,72446968,1,0,1
35962,72448968,4,0,1
35963,72450968,1,0,1
35964,72452968,37,1,1
35965,72454968,0,1,0
35966,72456968,3,1,1
35967,72458968,0,0,0
35968,72460968,0,0,0
35969,72462968,9,0,1
35970,72464968,1,0,1
35971,72466968,0,0,0
35972,72468968,0,0,0
35973,72470968,4,0,1
35974,72472968,268,1,1
35975,72474968,2,1,1
35976,72476968,5,1,1
35977,72478968,0,0,0
35978,72480968,3,0,1
35979,72482968,9,0,1
35980,72484968,0,0,0
35981,72486968,0,0,0
35982,72488968,4,0,1
35983,72490968,1,0,1
35984,72492968,399,1,1
35985,72494968,0,1,0
35986,72496968,1,1,1
35987,72498968,0,0,0
35988,72500968,0,0,0
35989,72502968,18,0,1
35990,72504968,5,0,1
35991,72506968,1,0,1
35992,72508968,1,0,1
35993,72510968,0,0,0
35994,72512968,378,1,1
35995,72514968,1,1,1
35996,72516968,0,1,0
35997,72518968,2,0,1
35998,72520968,5,0,1
35999,72522968,13,0,1
36000,72524968,3,0,1
36001,72526968,6,0,1
36002,72528968,0,0,0
36003,72530968,0,0,0
36004,72532968,69,1,1
36005,72534968,1,1,1
36006,72536968,3,1,1
36007,72538968,3,0,1
36008,72540968,6,0,1
36009,72542968,16,0,1
36010,72544968,0,0,0
36011,72546968,4,0,1
36012,72548968,3,0,1
36013,72550968,3,0,1
36014,72552968,18,1,1
36015,72554968,5,1,1
36016,72556968,0,1,0
36017,72558968,0,0,0
36018,72560968,3,0,1
36019,72562968,5,0,1
36020,72564968,0,0,0
36021,72566968,4,0,1
36022,72568968,0,0,0
36023,72570968,0,0,0
36024,72572968,1,1,1
36025,72574968,0,1,0
36026,72576968,0,1,0
36027,72578968,5,0,1
36028,72580968,0,0,0
36029,72582968,0,0,0
36030,72584968,3,0,1
36031,72586968,1,0,1
36032,72588968,2,0,1
36033,72590968,43,0,1
36034,72592968,498,1,1
36035,72594968,1,1,1
36036,72596968,4,1,1
36037,72598968,0,0,0
36038,72600968,3,0,1
36039,72602968,0,0,0
36040,72604968,3,0,1
36041,72606968,5,0,1
36042,72608968,1,0,1
36043,72610968,6,0,1
36044,72612968,3,1,1
36045,72614968,1,1,1
36046,72616968,1,0,1
36047,72618968,3,0,1
36048,72620968,1,0,1
36049,72622968,9,0,1
36050,72624968,0,0,0
36051,72626968,0,0,0
36052,72628968,1,0,1
36053,72630968,1,0,1
36054,72632968,69,1,1
36055,72634968,6,1,1
36056,72636968,0,1,0
36057,72638968,1,0,1
36058,72640968,6,0,1
36059,72642968,0,0,0
36060,72644968,1,0,1
36061,72646968,6,0,1
36062,72648968,5,0,1
36063,72650968,6,0,1
36064,72652968,5,1,1
36065,72654968,5,1,1
36066,72656968,0,1,0
36067,72658968,7,0,1
36068,72660968,5,0,1
36069,72662968,0,0,0
36070,72664968,4,0,1
36071,72666968,5,0,1
36072,72668968,3,0,1
36073,72670968,3,0,1
36074,72672968,27,1,1
36075,72674968,4,1,1
36076,72676968,0,1,0
36077,72678968,1,0,1
36078,72680968,5,0,1
36079,72682968,1,0,1
36080,72684968,5,0,1
36081,72686968,0,0,0
36082,72688968,6,0,1
36083,72690968,1,0,1
36084,72692968,28,1,1
36085,72694968,4,1,1
36086,72696968,2,1,1
36087,72698968,0,0,0
36088,72700968,9,0,1
36089,72702968,3,0,1
36090,72704968,1,0,1
36091,72706968,5,0,1
36092,72708968,3,0,1
36093,72710968,51,0,1
36094,72712968,503,1,1
36095,72714968,2,1,1
36096,72716968,4,1,1
36097,72718968,0,0,0
36098,72720968,3,0,1
36099,72722968,2,0,1
36100,72724968,3,0,1
36101,72726968,4,0,1
36102,72728968,4,0,1
36103,72730968,116,0,1
36104,72732968,629,1,1
36105,72734968,1,1,1
36106,72736968,0,1,0
36107,72738968,0,0,0
36108,72740968,7,0,1
36109,72742968,0,0,0
36110,72744968,7,0,1
36111,72746968,2,0,1
36112,72748968,0,0,0
36113,72750968,1,0,1
36114,72752968,165,1,1
36115,72754968,5,1,1
36116,72756968,1,1,1
36117,72758968,4,0,1
36118,72760968,4,0,1
36119,72762968,1,0,1
36120,72764968,6,0,1
36121,72766968,6,0,1
36122,72768968,0,0,0
36123,72770968,143,0,1
36124,72772968,671,1,1
36125,72774968,2,1,1
36126,72776968,6,1,1
36127,72778968,3,0,1
36128,72780968,0,0,0
36129,72782968,4,0,1
36130,72784968,4,0,1
36131,72786968,1,0,1
36132,72788968,5,0,1
36133,72790968,3,0,1
36134,72792968,146,1,1
36135,72794968,0,1,0
36136,72796968,1,1,1
36137,72798968,5,0,1
36138,72800968,1,0,1
36139,72802968,2,0,1
36140,72804968,2,0,1
36141,72806968,5,0,1
36142,72808968,1,0,1
36143,72810968,1,0,1
36144,72812968,206,1,1
36145,72814968,0,1,0
36146,72816968,4,1,1
36147,72818968,0,0,0
36148,72820968,3,0,1
36149,72822968,9,0,1
36150,72824968,2,0,1
36151,72826968,0,0,0
36152,72828968,0,0,0
36153,72830968,2,0,1
36154,72832968,57,1,1
36155,72834968,0,1,0
36156,72836968,0,1,0
36157,72838968,0,0,0
36158,72840968,2,0,1
36159,72842968,2,0,1
36160,72844968,1,0,1
36161,72846968,0,0,0
36162,72848968,4,0,1
36163,72850968,6,0,1
36164,72852968,10,1,1
36165,72854968,2,1,1
36166,72856968,5,1,1
36167,72858968,4,0,1
36168,72860968,5,0,1
36169,72862968,7,0,1
36170,72864968,0,0,0
36171,72866968,1,0,1
36172,72868968,2,0,1
36173,72870968,5,0,1
36174,72872968,409,1,1
36175,72874968,2,1,1
36176,72876968,0,1,0
36177,72878968,3,0,1
36178,72880968,1,0,1
36179,72882968,21,0,1
36180,72884968,0,0,0
36181,72886968,0,0,0
36182,72888968,5,0,1
36183,72890968,73,0,1
36184,72892968,557,1,1
36185,72894968,1,1,1
36186,72896968,5,1,1
36187,72898968,0,0,0
36188,72900968,4,0,1
36189,72902968,9,0,1
36190,72904968,7,0,1
36191,72906968,1,0,1
36192,72908968,5,0,1
36193,72910968,2,0,1
36194,72912968,345,1,1
36195,72914968,3,1,1
36196,72916968,2,1,1
36197,72918968,3,0,1
36198,72920968,1,0,1
36199,72922968,23,0,1
36200,72924968,3,0,1
36201,72926968,6,0,1
36202,72928968,0,0,0
36203,72930968,278,0,1
36204,72932968,815,1,1
36205,72934968,1,1,1
36206,72936968,5,1,1
36207,72938968,4,0,1
36208,72940968,0,0,0
36209,72942968,13,0,1
36210,72944968,0,0,0
36211,72946968,0,0,0
36212,72948968,2,0,1
36213,72950968,57,0,1
36214,72952968,500,1,1
36215,72954968,0,1,0
36216,72956968,8,1,1
36217,72958968,3,0,1
36218,72960968,0,0,0
36219,72962968,8,0,1
36220,72964968,1,0,1
36221,72966968,4,0,1
36222,72968968,3,0,1
36223,72970968,243,0,1
36224,72972968,763,1,1
36225,72974968,4,1,1
36226,72976968,2,1,1
36227,72978968,1,0,1
36228,72980968,5,0,1
36229,72982968,13,0,1
36230,72984968,0,0,0
36231,72986968,4,0,1
36232,72988968,5,0,1
36233,72990968,7,0,1
36234,72992968,139,1,1
36235,72994968,3,1,1
36236,72996968,0,1,0
36237,72998968,0,0,0
36238,73000968,6,0,1
36239,73002968,19,0,1
36240,73004968,4,0,1
36241,73006968,1,0,1
36242,73008968,1,0,1
36243,73010968,7,0,1
36244,73012968,212,1,1
36245,73014968,2,1,1
36246,73016968,7,1,1
36247,73018968,5,0,1
36248,73020968,9,0,1
36249,73022968,17,0,1
36250,73024968,0,0,0
36251,73026968,3,0,1
36252,73028968,5,0,1
36253,73030968,6,0,1
36254,73032968,13,1,1
36255,73034968,5,1,1
36256,73036968,6,1,1
36257,73038968,3,0,1
36258,73040968,5,0,1
36259,73042968,17,0,1
36260,73044968,5,0,1
36261,73046968,0,0,0
36262,73048968,5,0,1
36263,73050968,63,0,1
36264,73052968,459,1,1
36265,73054968,0,1,0
36266,73056968,7,1,1
36267,73058968,7,0,1
36268,73060968,5,0,1
36269,73062968,5,0,1
36270,73064968,5,0,1
36271,73066968,0,0,0
36272,73068968,3,0,1
36273,73070968,2,0,1
36274,73072968,85,1,1
36275,73074968,1,1,1
36276,73076968,6,1,1
36277,73078968,3,0,1
36278,73080968,0,0,0
36279,73082968,0,0,0
36280,73084968,0,0,0
36281,73086968,2,0,1
36282,73088968,6,0,1
36283,73090968,5,0,1
36284,73092968,1,1,1
36285,73094968,3,1,1
36286,73096968,0,1,0
36287,73098968,5,0,1
36288,73100968,1,0,1
36289,73102968,0,0,0
36290,73104968,0,0,0
36291,73106968,1,0,1
36292,73108968,5,0,1
36293,73110968,7,0,1
36294,73112968,5,1,1
36295,73114968,0,1,0
36296,73116968,1,1,1
36297,73118968,5,0,1
36298,73120968,5,0,1
36299,73122968,5,0,1
36300,73124968,0,0,0
36301,73126968,0,0,0
36302,73128968,6,0,1
36303,73130968,7,0,1
36304,73132968,0,1,0
36305,73134968,1,1,1
36306,73136968,5,1,1
36307,73138968,5,0,1
36308,73140968,3,0,1
36309,73142968,0,0,0
36310,73144968,4,0,1
36311,73146968,1,0,1
36312,73148968,2,0,1
36313,73150968,22,0,1
36314,73152968,361,1,1
36315,73154968,5,1,1
36316,73156968,3,1,1
36317,73158968,5,0,1
36318,73160968,1,0,1
36319,73162968,5,0,1
36320,73164968,0,0,0
36321,73166968,6,0,1
36322,73168968,7,0,1
36323,73170968,4,0,1
36324,73172968,219,1,1
36325,73174968,5,1,1
36326,73176968,4,1,1
36327,73178968,9,0,1
36328,73180968,5,0,1
36329,73182968,7,0,1
36330,73184968,6,0,1
36331,73186968,1,0,1
36332,73188968,7,0,1
36333,73190968,139,0,1
36334,73192969,552,1,1
36335,73194968,5,1,1
36336,73196968,3,1,1
36337,73198968,1,0,1
36338,73200968,2,0,1
36339,73202968,5,0,1
36340,73204968,3,0,1
36341,73206968,4,0,1
36342,73208968,10,0,1
36343,73210968,5,0,1
36344,73212968,227,1,1
36345,73214968,4,1,1
36346,73216968,8,1,1
36347,73218968,3,0,1
36348,73220968,8,0,1
36349,73222968,0,0,0
36350,73224968,4,0,1
36351,73226968,7,0,1
36352,73228968,9,0,1
36353,73230968,10,0,1
36354,73232969,247,1,1
36355,73234968,3,1,1
36356,73236968,6,1,1
36357,73238968,6,0,1
36358,73240968,3,0,1
36359,73242968,0,0,0
36360,73244968,9,0,1
36361,73246968,7,0,1
36362,73248968,8,0,1
36363,73250968,11,0,1
36364,73252968,45,1,1
36365,73254968,1,1,1
36366,73256968,5,1,1
36367,73258968,9,0,1
36368,73260968,3,0,1
36369,73262968,3,0,1
36370,73264968,7,0,1
36371,73266968,7,0,1
36372,73268968,5,0,1
36373,73270968,9,0,1
36374,73272969,9,1,1
36375,73274968,1,1,1
36376,73276968,9,1,1
36377,73278968,3,0,1
36378,73280968,17,0,1
36379,73282968,9,0,1
36380,73284968,7,0,1
36381,73286968,4,0,1
36382,73288968,4,0,1
36383,73290968,23,0,1
36384,73292968,5,1,1
36385,73294968,5,1,1
36386,73296968,9,1,1
36387,73298968,5,0,1
36388,73300968,21,0,1
36389,73302968,5,0,1
36390,73304968,0,0,0
36391,73306968,3,0,1
36392,73308968,3,0,1
36393,73310968,57,0,1
36394,73312969,310,1,1
36395,73314968,0,1,0
36396,73316968,3,1,1
36397,73318968,9,0,1
36398,73320968,9,0,1
36399,73322968,1,0,1
36400,73324968,7,0,1
36401,73326968,13,0,1
36402,73328968,5,0,1
36403,73330968,14,0,1
36404,73332968,57,1,1
36405,73334968,1,1,1
36406,73336968,6,1,1
36407,73338968,7,0,1
36408,73340968,13,0,1
36409,73342968,5,0,1
36410,73344968,8,0,1
36411,73346968,11,0,1
36412,73348968,7,0,1
36413,73350968,23,0,1
36414,73352969,51,1,1
36415,73354968,6,1,1
36416,73356968,9,1,1
36417,73358968,10,0,1
36418,73360968,18,0,1
36419,73362968,9,0,1
36420,73364968,3,0,1
36421,73366968,1,0,1
36422,73368968,6,0,1
36423,73370968,17,0,1
36424,73372968,7,1,1
36425,73374968,4,1,1
36426,73376968,7,1,1
36427,73378968,8,0,1
36428,73380968,18,0,1
36429,73382968,0,0,0
36430,73384968,8,0,1
36431,73386968,2,0,1
36432,73388968,8,0,1
36433,73390968,17,0,1
36434,73392969,6,1,1
36435,73394968,0,1,0
36436,73396968,7,1,1
36437,73398968,7,0,1
36438,73400968,21,0,1
36439,73402968,8,0,1
36440,73404968,1,0,1
36441,73406968,6,0,1
36442,73408968,5,0,1
36443,73410968,21,0,1
36444,73412968,120,1,1
36445,73414968,2,1,1
36446,73416968,5,1,1
36447,73418968,1,0,1
36448,73420968,20,0,1
36449,73422968,6,0,1
36450,73424968,7,0,1
36451,73426968,3,0,1
36452,73428968,7,0,1
36453,73430968,402,0,1
36454,73432969,745,1,1
36455,73434968,0,1,0
36456,73436968,5,1,1
36457,73438968,4,0,1
36458,73440968,17,0,1
36459,73442968,6,0,1
36460,73444968,1,0,1
36461,73446968,3,0,1
36462,73448968,3,0,1
36463,73450968,21,0,1
36464,73452968,125,1,1
36465,73454968,5,1,1
36466,73456968,7,1,1
36467,73458968,3,0,1
36468,73460968,18,0,1
36469,73462968,1,0,1
36470,73464968,4,0,1
36471,73466968,3,0,1
36472,73468968,5,0,1
36473,73470968,331,0,1
36474,73472969,619,1,1
36475,73474968,2,1,1
36476,73476968,5,1,1
36477,73478968,9,0,1
36478,73480968,6,0,1
36479,73482968,3,0,1
36480,73484968,2,0,1
36481,73486968,3,0,1
36482,73488968,9,0,1
36483,73490968,45,0,1
36484,73492968,229,1,1
36485,73494968,9,1,1
36486,73496968,2,1,1
36487,73498968,5,0,1
36488,73500968,2,0,1
36489,73502968,8,0,1
36490,73504968,7,0,1
36491,73506968,4,0,1
36492,73508968,5,0,1
36493,73510968,61,0,1
36494,73512969,231,1,1
36495,73514968,7,1,1
36496,73516968,10,1,1
36497,73518968,1,0,1
36498,73520968,3,0,1
36499,73522968,8,0,1
36500,73524968,3,0,1
36501,73526968,1,0,1
36502,73528968,9,0,1
36503,73530968,7,0,1
36504,73532968,6,1,1
36505,73534968,3,1,1
36506,73536968,3,1,1
36507,73538968,8,0,1
36508,73540968,17,0,1
36509,73542968,3,0,1
36510,73544968,2,0,1
36511,73546968,8,0,1
36512,73548968,9,0,1
36513,73550968,7,0,1
36514,73552969,7,1,1
36515,73554968,9,1,1
36516,73556968,6,1,1
36517,73558968,3,0,1
36518,73560968,9,0,1
36519,73562968,9,0,1
36520,73564968,5,0,1
36521,73566968,7,0,1
36522,73568968,10,0,1
36523,73570968,102,0,1
36524,73572968,231,1,1
36525,73574968,5,1,1
36526,73576968,8,1,1
36527,73578968,2,0,1
36528,73580968,5,0,1
36529,73582968,3,0,1
36530,73584968,5,0,1
36531,73586968,6,0,1
36532,73588968,8,0,1
36533,73590968,313,0,1
36534,73592969,524,1,1
36535,73594968,7,1,1
36536,73596968,5,1,1
36537,73598968,9,0,1
36538,73600968,9,0,1
36539,73602968,3,0,1
36540,73604968,4,0,1
36541,73606968,1,0,1
36542,73608968,6,0,1
36543,73610968,17,0,1
36544,73612968,10,1,1
36545,73614968,2,1,1
36546,73616968,5,1,1
36547,73618968,5,0,1
36548,73620968,11,0,1
36549,73622968,8,0,1
36550,73624968,5,0,1
36551,73626968,4,0,1
36552,73628968,6,0,1
36553,73630968,146,0,1
36554,73632969,284,1,1
36555,73634968,2,1,1
36556,73636968,3,1,1
36557,73638968,9,0,1
36558,73640968,13,0,1
36559,73642968,5,0,1
36560,73644968,1,0,1
36561,73646968,5,0,1
36562,73648968,0,0,0
36563,73650968,9,0,1
36564,73652968,7,1,1
36565,73654968,5,1,1
36566,73656968,5,1,1
36567,73658968,0,0,0
36568,73660968,7,0,1
36569,73662968,5,0,1
36570,73664968,5,0,1
36571,73666968,9,0,1
36572,73668968,3,0,1
36573,73670968,3,0,1
36574,73672969,3,1,1
36575,73674968,5,1,1
36576,73676968,7,1,1
36577,73678968,7,0,1
36578,73680968,10,0,1
36579,73682968,10,0,1
36580,73684968,2,0,1
36581,73686968,8,0,1
36582,73688968,3,0,1
36583,73690968,160,0,1
36584,73692968,231,1,1
36585,73694968,6,1,1
36586,73696968,11,1,1
36587,73698968,4,0,1
36588,73700968,5,0,1
36589,73702968,12,0,1
36590,73704968,3,0,1
36591,73706968,3,0,1
36592,73708968,5,0,1
36593,73710968,3,0,1
36594,73712969,13,1,1
36595,73714968,6,1,1
36596,73716968,3,1,1
36597,73718968,10,0,1
36598,73720968,8,0,1
36599,73722968,7,0,1
36600,73724968,3,0,1
36601,73726968,7,0,1
36602,73728968,11,0,1
36603,73730968,3,0,1
36604,73732968,7,1,1
36605,73734968,1,1,1
36606,73736968,8,1,1
36607,73738968,7,0,1
36608,73740968,11,0,1
36609,73742968,6,0,1
36610,73744968,0,0,0
36611,73746968,3,0,1
36612,73748968,9,0,1
36613,73750968,7,0,1
36614,73752969,16,1,1
36615,73754968,3,1,1
36616,73756968,6,1,1
36617,73758968,4,0,1
36618,73760968,4,0,1
36619,73762968,5,0,1
36620,73764968,2,0,1
36621,73766968,7,0,1
36622,73768968,6,0,1
36623,73770968,71,0,1
36624,73772968,35,1,1
36625,73774968,3,1,1
36626,73776968,7,1,1
36627,73778968,7,0,1
36628,73780968,11,0,1
36629,73782968,7,0,1
36630,73784968,3,0,1
36631,73786968,5,0,1
36632,73788968,4,0,1
36633,73790968,19,0,1
36634,73792969,9,1,1
36635,73794968,6,1,1
36636,73796968,14,0,1
36637,73798968,4,0,1
36638,73800968,22,0,1
36639,73802968,4,0,1
36640,73804968,7,0,1
36641,73806968,9,0,1
36642,73808968,7,0,1
36643,73810968,19,0,1
36644,73812968,6,1,1
36645,73814968,3,1,1
36646,73816968,5,0,1
36647,73818968,8,0,1
36648,73820968,18,0,1
36649,73822968,7,0,1
36650,73824968,5,0,1
36651,73826968,4,0,1
36652,73828968,5,0,1
36653,73830968,332,0,1
36654,73832969,345,1,1
36655,73834968,5,1,1
36656,73836968,20,0,1
36657,73838968,3,0,1
36658,73840968,19,0,1
36659,73842968,9,0,1
36660,73844968,8,0,1
36661,73846968,5,0,1
36662,73848968,9,0,1
36663,73850968,24,0,1
36664,73852968,9,1,1
36665,73854968,3,1,1
36666,73856968,7,0,1
36667,73858968,4,0,1
36668,73860968,19,0,1
36669,73862968,5,0,1
36670,73864968,11,0,1
36671,73866968,9,0,1
36672,73868968,11,0,1
36673,73870968,328,0,1
36674,73872969,309,1,1
36675,73874968,1,1,1
36676,73876968,9,0,1
36677,73878968,3,0,1
36678,73880968,19,0,1
36679,73882968,3,0,1
36680,73884968,2,0,1
36681,73886968,8,0,1
36682,73888968,3,0,1
36683,73890968,311,0,1
36684,73892968,299,1,1
36685,73894968,6,1,1
36686,73896968,7,0,1
36687,73898968,4,0,1
36688,73900968,23,0,1
36689,73902968,2,0,1
36690,73904968,5,0,1
36691,73906968,9,0,1
36692,73908968,10,0,1
36693,73910968,215,0,1
36694,73912969,9,1,1
36695,73914968,7,1,1
36696,73916968,10,0,1
36697,73918968,5,0,1
36698,73920968,19,0,1
36699,73922968,2,0,1
36700,73924968,7,0,1
36701,73926968,2,0,1
36702,73928968,4,0,1
36703,73930968,13,0,1
36704,73932968,10,1,1
36705,73934968,6,1,1
36706,73936968,11,0,1
36707,73938968,7,0,1
36708,73940968,19,0,1
36709,73942968,7,0,1
36710,73944968,3,0,1
36711,73946968,4,0,1
36712,73948968,8,0,1
36713,73950968,22,0,1
36714,73952969,9,1,1
36715,73954968,2,1,1
36716,73956968,9,0,1
36717,73958968,5,0,1
36718,73960968,21,0,1
36719,73962968,6,0,1
36720,73964968,7,0,1
36721,73966968,10,0,1
36722,73968968,9,0,1
36723,73970968,11,0,1
36724,73972968,7,1,1
36725,73974968,2,1,1
36726,73976968,8,0,1
36727,73978968,7,0,1
36728,73980968,9,0,1
36729,73982968,6,0,1
36730,73984968,4,0,1
36731,73986968,7,0,1
36732,73988968,11,0,1
36733,73990968,156,0,1
36734,73992969,19,1,1
36735,73994968,1,1,1
36736,73996968,8,0,1
36737,73998968,5,0,1
36738,74000968,0,0,0
36739,74002968,9,0,1
36740,74004968,6,0,1
36741,74006968,4,0,1
36742,74008968,5,0,1
36743,74010968,7,0,1
36744,74012968,3,1,1
36745,74014968,5,1,1
36746,74016968,9,0,1
36747,74018968,4,0,1
36748,74020968,5,0,1
36749,74022968,9,0,1
36750,74024968,5,0,1
36751,74026968,5,0,1
36752,74028968,5,0,1
36753,74030968,185,0,1
36754,74032969,10,1,1
36755,74034968,4,1,1
36756,74036968,5,0,1
36757,74038968,3,0,1
36758,74040968,16,0,1
36759,74042968,9,0,1
36760,74044968,5,0,1
36761,74046968,9,0,1
36762,74048968,59,0,1
36763,74050968,549,0,1
36764,74052968,396,1,1
36765,74054968,5,1,1
36766,74056968,3,0,1
36767,74058968,3,0,1
36768,74060968,9,0,1
36769,74062968,5,0,1
36770,74064968,1,0,1
36771,74066968,7,0,1
36772,74068968,2,0,1
36773,74070968,52,0,1
36774,74072969,8,1,1
36775,74074968,9,1,1
36776,74076968,8,0,1
36777,74078968,1,0,1
36778,74080968,1,0,1
36779,74082968,7,0,1
36780,74084968,9,0,1
36781,74086968,6,0,1
36782,74088968,66,0,1
36783,74090968,563,0,1
36784,74092968,366,1,1
36785,74094968,7,1,1
36786,74096968,9,0,1
36787,74098968,2,0,1
36788,74100968,3,0,1
36789,74102968,9,0,1
36790,74104968,9,0,1
36791,74106968,5,0,1
36792,74108968,79,0,1
36793,74110968,581,0,1
36794,74112969,371,1,1
36795,74114968,7,1,1
36796,74116968,8,0,1
36797,74118968,6,0,1
36798,74120968,7,0,1
36799,74122968,4,0,1
36800,74124968,3,0,1
36801,74126968,11,0,1
36802,74128968,11,0,1
36803,74130968,478,0,1
36804,74132968,286,1,1
36805,74134968,7,1,1
36806,74136968,7,0,1
36807,74138968,6,0,1
36808,74140968,1,0,1
36809,74142968,9,0,1
36810,74144968,9,0,1
36811,74146968,9,0,1
36812,74148968,173,0,1
36813,74150968,726,0,1
36814,74152969,469,1,1
36815,74154968,4,1,1
36816,74156968,5,0,1
36817,74158968,6,0,1
36818,74160968,3,0,1
36819,74162968,7,0,1
36820,74164968,1,0,1
36821,74166968,5,0,1
36822,74168968,4,0,1
36823,74170968,60,0,1
36824,74172968,4,1,1
36825,74174968,7,1,1
36826,74176968,3,0,1
36827,74178968,4,0,1
36828,74180968,8,0,1
36829,74182968,5,0,1
36830,74184968,3,0,1
36831,74186968,6,0,1
36832,74188968,10,0,1
36833,74190968,421,0,1
36834,74192969,101,1,1
36835,74194968,6,1,1
36836,74196968,7,0,1
36837,74198968,9,0,1
36838,74200968,12,0,1
36839,74202968,8,0,1
36840,74204968,2,0,1
36841,74206968,7,0,1
36842,74208968,20,0,1
36843,74210968,61,0,1
36844,74212968,11,1,1
36845,74214968,2,1,1
36846,74216968,3,0,1
36847,74218968,24,0,1
36848,74220968,4,0,1
36849,74222968,5,0,1
36850,74224968,4,0,1
36851,74226968,5,0,1
36852,74228968,17,0,1
36853,74230968,35,1,1
36854,74232969,15,1,1
36855,74234968,7,1,1
36856,74236968,6,0,1
36857,74238968,19,0,1
36858,74240968,9,0,1
36859,74242968,5,0,1
36860,74244968,5,0,1
36861,74246968,1,0,1
36862,74248968,17,0,1
36863,74250968,220,0,1
36864,74252968,8,1,1
36865,74254968,4,1,1
36866,74256968,4,0,1
36867,74258968,17,0,1
36868,74260968,11,0,1
36869,74262968,6,0,1
36870,74264968,8,0,1
36871,74266968,9,0,1
36872,74268968,88,0,1
36873,74270968,564,1,1
36874,74272969,163,1,1
36875,74274968,9,1,1
36876,74276968,5,0,1
36877,74278968,18,0,1
36878,74280968,9,0,1
36879,74282968,5,0,1
36880,74284968,10,0,1
36881,74286968,4,0,1
36882,74288968,21,0,1
36883,74290968,207,1,1
36884,74292968,11,1,1
36885,74294968,3,1,1
36886,74296968,7,0,1
36887,74298968,20,0,1
36888,74300968,3,0,1
36889,74302968,9,0,1
36890,74304968,7,0,1
36891,74306968,8,0,1
36892,74308968,21,0,1
36893,74310968,466,1,1
36894,74312969,31,1,1
36895,74314968,0,1,0
36896,74316968,7,0,1
36897,74318968,18,0,1
36898,74320968,9,0,1
36899,74322968,2,0,1
36900,74324968,1,0,1
36901,74326968,5,0,1
36902,74328968,23,0,1
36903,74330968,83,1,1
36904,74332968,11,1,1
36905,74334968,7,1,1
36906,74336968,9,0,1
36907,74338968,16,0,1
36908,74340968,6,0,1
36909,74342968,10,0,1
36910,74344968,1,0,1
36911,74346968,8,0,1
36912,74348968,16,0,1
36913,74350968,155,1,1
36914,74352969,13,1,1
36915,74354968,3,1,1
36916,74356968,8,0,1
36917,74358968,13,0,1
36918,74360968,9,0,1
36919,74362968,2,0,1
36920,74364968,5,0,1
36921,74366968,8,0,1
36922,74368968,21,0,1
36923,74370968,55,1,1
36924,74372968,5,1,1
36925,74374968,1,1,1
36926,74376968,4,0,1
36927,74378968,21,0,1
36928,74380968,9,0,1
36929,74382968,1,0,1
36930,74384968,2,0,1
36931,74386968,3,0,1
36932,74388968,13,0,1
36933,74390968,11,1,1
36934,74392969,9,1,1
36935,74394968,5,1,1
36936,74396968,8,0,1
36937,74398968,9,0,1
36938,74400968,3,0,1
36939,74402968,8,0,1
36940,74404968,9,0,1
36941,74406968,5,0,1
36942,74408968,3,0,1
36943,74410968,315,1,1
36944,74412968,4,1,1
36945,74414968,6,1,1
36946,74416968,8,0,1
36947,74418968,0,0,0
36948,74420968,9,0,1
36949,74422968,2,0,1
36950,74424968,7,0,1
36951,74426968,9,0,1
36952,74428968,8,0,1
36953,74430968,63,1,1
36954,74432969,12,1,1
36955,74434968,2,1,1
36956,74436968,9,0,1
36957,74438968,1,0,1
36958,74440968,9,0,1
36959,74442968,6,0,1
36960,74444968,7,0,1
36961,74446968,5,0,1
36962,74448968,71,0,1
36963,74450968,567,1,1
36964,74452968,10,1,1
36965,74454968,10,1,1
36966,74456968,2,0,1
36967,74458968,0,0,0
36968,74460968,5,0,1
36969,74462968,8,0,1
36970,74464968,6,0,1
36971,74466968,5,0,1
36972,74468968,16,0,1
36973,74470968,82,1,1
36974,74472969,7,1,1
36975,74474968,12,1,1
36976,74476968,7,0,1
36977,74478968,9,0,1
36978,74480968,4,0,1
36979,74482968,11,0,1
36980,74484968,6,0,1
36981,74486968,5,0,1
36982,74488968,7,0,1
36983,74490968,383,1,1
36984,74492968,7,1,1
36985,74494968,0,1,0
36986,74496968,2,0,1
36987,74498968,5,0,1
36988,74500968,11,0,1
36989,74502968,3,0,1
36990,74504968,5,0,1
36991,74506968,7,0,1
36992,74508968,5,0,1
36993,74510968,92,1,1
36994,74512969,5,1,1
36995,74514968,3,1,1
36996,74516968,5,0,1
36997,74518968,4,0,1
36998,74520968,9,0,1
36999,74522968,7,0,1
37000,74524968,12,0,1
37001,74526968,7,0,1
37002,74528968,11,0,1
37003,74530968,190,1,1
37004,74532968,8,1,1
37005,74534968,3,1,1
37006,74536968,3,0,1
37007,74538968,10,0,1
37008,74540968,0,0,0
37009,74542968,5,0,1
37010,74544968,9,0,1
37011,74546968,5,0,1
37012,74548968,8,0,1
37013,74550968,173,1,1
37014,74552969,9,1,1
37015,74554968,3,1,1
37016,74556968,6,0,1
37017,74558968,11,0,1
37018,74560968,5,0,1
37019,74562968,9,0,1
37020,74564968,9,0,1
37021,74566968,6,0,1
37022,74568968,9,0,1
37023,74570968,87,1,1
37024,74572968,4,1,1
37025,74574968,2,1,1
37026,74576968,8,0,1
37027,74578968,0,0,0
37028,74580968,7,0,1
37029,74582968,4,0,1
37030,74584968,9,0,1
37031,74586968,10,0,1
37032,74588968,6,0,1
37033,74590968,7,1,1
37034,74592969,13,1,1
37035,74594968,1,1,1
37036,74596968,7,0,1
37037,74598968,5,0,1
37038,74600968,8,0,1
37039,74602968,4,0,1
37040,74604968,6,0,1
37041,74606968,5,0,1
37042,74608968,12,0,1
37043,74610968,6,1,1
37044,74612968,7,1,1
37045,74614968,0,1,0
37046,74616968,5,0,1
37047,74618968,6,0,1
37048,74620968,7,0,1
37049,74622968,1,0,1
37050,74624968,5,0,1
37051,74626968,5,0,1
37052,74628968,10,0,1
37053,74630968,109,1,1
37054,74632969,8,1,1
37055,74634968,7,1,1
37056,74636968,7,0,1
37057,74638968,2,0,1
37058,74640968,19,0,1
37059,74642968,7,0,1
37060,74644968,6,0,1
37061,74646968,3,0,1
37062,74648968,39,0,1
37063,74650968,487,1,1
37064,74652968,6,1,1
37065,74654968,7,1,1
37066,74656968,3,0,1
37067,74658968,11,0,1
37068,74660968,2,0,1
37069,74662968,9,0,1
37070,74664968,8,0,1
37071,74666968,7,0,1
37072,74668968,92,0,1
37073,74670968,562,1,1
37074,74672969,10,1,1
37075,74674968,6,1,1
37076,74676968,9,0,1
37077,74678968,6,0,1
37078,74680968,2,0,1
37079,74682968,3,0,1
37080,74684968,8,0,1
37081,74686968,4,0,1
37082,74688968,8,0,1
37083,74690968,138,1,1
37084,74692968,9,1,1
37085,74694968,3,1,1
37086,74696968,10,0,1
37087,74698968,7,0,1
37088,74700968,3,0,1
37089,74702968,5,0,1
37090,74704968,5,0,1
37091,74706968,5,0,1
37092,74708968,19,0,1
37093,74710968,232,1,1
37094,74712969,12,1,1
37095,74714968,2,0,1
37096,74716968,5,0,1
37097,74718968,29,0,1
37098,74720968,3,0,1
37099,74722968,7,0,1
37100,74724968,7,0,1
37101,74726968,5,0,1
37102,74728968,168,0,1
37103,74730968,651,1,1
37104,74732968,6,1,1
37105,74734968,5,1,1
37106,74736968,3,0,1
37107,74738968,14,0,1
37108,74740968,5,0,1
37109,74742968,8,0,1
37110,74744968,9,0,1
37111,74746968,4,0,1
37112,74748968,122,0,1
37113,74750968,599,1,1
37114,74752969,7,1,1
37115,74754968,3,1,1
37116,74756968,9,0,1
37117,74758968,20,0,1
37118,74760968,4,0,1
37119,74762968,4,0,1
37120,74764968,1,0,1
37121,74766968,2,0,1
37122,74768968,18,0,1
37123,74770968,226,1,1
37124,74772968,7,1,1
37125,74774968,2,1,1
37126,74776968,2,0,1
37127,74778968,19,0,1
37128,74780968,9,0,1
37129,74782968,5,0,1
37130,74784968,9,0,1
37131,74786968,6,0,1
37132,74788968,115,0,1
37133,74790968,563,1,1
37134,74792969,0,1,0
37135,74794968,9,1,1
37136,74796968,9,0,1
37137,74798968,20,0,1
37138,74800968,4,0,1
37139,74802968,2,0,1
37140,74804968,1,0,1
37141,74806968,3,0,1
37142,74808968,159,0,1
37143,74810968,639,1,1
37144,74812968,2,1,1
37145,74814968,8,1,1
37146,74816968,6,0,1
37147,74818968,20,0,1
37148,74820968,2,0,1
37149,74822968,4,0,1
37150,74824968,5,0,1
37151,74826968,4,0,1
37152,74828968,39,0,1
37153,74830968,429,1,1
37154,74832969,10,1,1
37155,74834968,7,1,1
37156,74836968,6,0,1
37157,74838968,19,0,1
37158,74840968,3,0,1
37159,74842968,8,0,1
37160,74844968,9,0,1
37161,74846968,7,0,1
37162,74848968,23,0,1
37163,74850968,70,1,1
37164,74852968,9,1,1
37165,74854968,4,1,1
37166,74856968,4,0,1
37167,74858968,17,0,1
37168,74860968,3,0,1
37169,74862968,6,0,1
37170,74864968,8,0,1
37171,74866968,5,0,1
37172,74868968,51,0,1
37173,74870968,439,1,1
37174,74872969,10,1,1
37175,74874968,8,1,1
37176,74876968,8,0,1
37177,74878968,13,0,1
37178,74880968,7,0,1
37179,74882968,4,0,1
37180,74884968,5,0,1
37181,74886968,6,0,1
37182,74888968,19,0,1
37183,74890968,79,1,1
37184,74892968,9,1,1
37185,74894968,10,1,1
37186,74896968,7,0,1
37187,74898968,17,0,1
37188,74900968,7,0,1
37189,74902968,5,0,1
37190,74904968,7,0,1
37191,74906968,9,0,1
37192,74908968,58,0,1
37193,74910968,446,1,1
37194,74912969,13,1,1
37195,74914968,3,1,1
37196,74916968,3,0,1
37197,74918968,7,0,1
37198,74920968,7,0,1
37199,74922968,7,0,1
37200,74924968,5,0,1
37201,74926968,11,0,1
37202,74928968,2,0,1
37203,74930968,261,1,1
37204,74932968,7,1,1
37205,74934968,8,1,1
37206,74936968,5,0,1
37207,74938968,5,0,1
37208,74940968,6,0,1
37209,74942968,4,0,1
37210,74944968,4,0,1
37211,74946968,9,0,1
37212,74948968,4,0,1
37213,74950968,9,1,1
37214,74952969,11,1,1
37215,74954968,9,1,1
37216,74956968,5,0,1
37217,74958968,9,0,1
37218,74960968,7,0,1
37219,74962968,4,0,1
37220,74964968,8,0,1
37221,74966968,6,0,1
37222,74968968,10,0,1
37223,74970968,226,1,1
37224,74972968,5,1,1
37225,74974968,6,1,1
37226,74976968,8,0,1
37227,74978968,14,0,1
37228,74980968,2,0,1
37229,74982968,3,0,1
37230,74984968,5,0,1
37231,74986968,5,0,1
37232,74988968,9,0,1
37233,74990968,123,1,1
37234,74992969,7,1,1
37235,74994968,4,1,1
37236,74996968,9,0,1
37237,74998968,5,0,1
37238,75000968,3,0,1
37239,75002968,9,0,1
37240,75004968,7,0,1
37241,75006968,3,0,1
37242,75008968,93,0,1
37243,75010968,467,1,1
37244,75012968,9,1,1
37245,75014968,2,1,1
37246,75016968,4,0,1
37247,75018968,3,0,1
37248,75020968,3,0,1
37249,75022968,9,0,1
37250,75024968,3,0,1
37251,75026968,6,0,1
37252,75028968,181,0,1
37253,75030968,603,1,1
37254,75032969,11,1,1
37255,75034968,5,1,1
37256,75036968,7,0,1
37257,75038968,11,0,1
37258,75040968,5,0,1
37259,75042968,7,0,1
37260,75044968,4,0,1
37261,75046968,6,0,1
37262,75048968,6,0,1
37263,75050968,39,1,1
37264,75052968,2,1,1
37265,75054968,2,1,1
37266,75056968,7,0,1
37267,75058968,6,0,1
37268,75060968,1,0,1
37269,75062968,10,0,1
37270,75064968,7,0,1
37271,75066968,6,0,1
37272,75068968,93,0,1
37273,75070968,442,1,1
37274,75072969,8,1,1
37275,75074968,6,1,1
37276,75076968,8,0,1
37277,75078968,3,0,1
37278,75080968,5,0,1
37279,75082968,4,0,1
37280,75084968,3,0,1
37281,75086968,5,0,1
37282,75088968,4,0,1
37283,75090968,173,1,1
37284,75092968,6,1,1
37285,75094968,5,1,1
37286,75096968,3,0,1
37287,75098968,5,0,1
37288,75100968,5,0,1
37289,75102968,7,0,1
37290,75104968,7,0,1
37291,75106968,3,0,1
37292,75108968,11,0,1
37293,75110968,105,1,1
37294,75112969,9,1,1
37295,75114968,7,1,1
37296,75116968,11,0,1
37297,75118968,5,0,1
37298,75120968,7,0,1
37299,75122968,1,0,1
37300,75124968,9,0,1
37301,75126968,18,0,1
37302,75128968,147,0,1
37303,75130968,473,1,1
37304,75132968,6,1,1
37305,75134968,3,1,1
37306,75136968,24,0,1
37307,75138968,9,0,1
37308,75140968,3,0,1
37309,75142968,8,0,1
37310,75144968,7,0,1
37311,75146968,21,0,1
37312,75148968,9,0,1
37313,75150968,153,1,1
37314,75152969,8,1,1
37315,75154968,9,1,1
37316,75156968,13,0,1
37317,75158968,9,0,1
37318,75160968,7,0,1
37319,75162968,3,0,1
37320,75164968,8,0,1
37321,75166968,19,0,1
37322,75168968,235,0,1
37323,75170968,585,1,1
37324,75172968,9,1,1
37325,75174968,9,1,1
37326,75176968,14,0,1
37327,75178968,8,0,1
37328,75180968,5,0,1
37329,75182968,9,0,1
37330,75184968,3,0,1
37331,75186968,22,0,1
37332,75188968,13,0,1
37333,75190968,164,1,1
37334,75192969,5,1,1
37335,75194968,7,1,1
37336,75196968,14,0,1
37337,75198968,4,0,1
37338,75200968,4,0,1
37339,75202968,3,0,1
37340,75204968,5,0,1
37341,75206968,21,0,1
37342,75208968,9,0,1
37343,75210968,3,1,1
37344,75212968,10,1,1
37345,75214968,3,1,1
37346,75216968,10,0,1
37347,75218968,9,0,1
37348,75220968,6,0,1
37349,75222968,9,0,1
37350,75224968,9,0,1
37351,75226968,12,0,1
37352,75228968,3,0,1
37353,75230968,5,1,1
37354,75232969,7,1,1
37355,75234968,9,1,1
37356,75236968,10,0,1
37357,75238968,5,0,1
37358,75240968,4,0,1
37359,75242968,6,0,1
37360,75244968,3,0,1
37361,75246968,23,0,1
37362,75248968,17,0,1
37363,75250968,3,1,1
37364,75252968,6,1,1
37365,75254968,0,1,0
37366,75256968,23,0,1
37367,75258968,7,0,1
37368,75260968,7,0,1
37369,75262968,8,0,1
37370,75264968,0,0,0
37371,75266968,18,0,1
37372,75268968,9,0,1
37373,75270968,27,1,1
37374,75272969,10,1,1
37375,75274968,2,1,1
37376,75276968,19,0,1
37377,75278968,8,0,1
37378,75280968,0,0,0
37379,75282968,1,0,1
37380,75284968,3,0,1
37381,75286968,19,0,1
37382,75288968,10,0,1
37383,75290968,1,1,1
37384,75292968,8,1,1
37385,75294968,7,1,1
37386,75296968,18,0,1
37387,75298968,6,0,1
37388,75300968,7,0,1
37389,75302968,7,0,1
37390,75304968,9,0,1
37391,75306968,20,0,1
37392,75308968,91,0,1
37393,75310968,277,1,1
37394,75312969,0,1,0
37395,75314968,14,1,1
37396,75316968,11,0,1
37397,75318968,4,0,1
37398,75320968,171,0,1
37399,75322968,7,0,1
37400,75324968,3,0,1
37401,75326968,5,0,1
37402,75328968,198,0,1
37403,75330968,6,1,1
37404,75332968,8,1,1
37405,75334968,5,1,1
37406,75336968,0,0,0
37407,75338968,8,0,1
37408,75340968,1,0,1
37409,75342968,11,0,1
37410,75344968,5,0,1
37411,75346968,2,0,1
37412,75348968,5,0,1
37413,75350968,5,1,1
37414,75352969,7,1,1
37415,75354968,3,1,1
37416,75356968,2,0,1
37417,75358968,3,0,1
37418,75360968,5,0,1
37419,75362968,5,0,1
37420,75364968,7,0,1
37421,75366968,9,0,1
37422,75368968,6,0,1
37423,75370968,86,1,1
37424,75372968,3,1,1
37425,75374968,5,1,1
37426,75376968,6,0,1
37427,75378968,6,0,1
37428,75380968,6,0,1
37429,75382968,8,0,1
37430,75384968,3,0,1
37431,75386968,9,0,1
37432,75388968,8,0,1
37433,75390968,4,1,1
37434,75392969,17,1,1
37435,75394968,4,1,1
37436,75396968,11,0,1
37437,75398968,5,0,1
37438,75400968,1,0,1
37439,75402968,5,0,1
37440,75404968,3,0,1
37441,75406968,7,0,1
37442,75408968,188,0,1
37443,75410968,359,1,1
37444,75412968,8,1,1
37445,75414968,9,1,1
37446,75416968,2,0,1
37447,75418968,6,0,1
37448,75420968,3,0,1
37449,75422968,6,0,1
37450,75424968,9,0,1
37451,75426968,5,0,1
37452,75428968,405,0,1
37453,75430968,601,1,1
37454,75432969,17,1,1
37455,75434968,3,1,1
37456,75436968,5,0,1
37457,75438968,4,0,1
37458,75440968,7,0,1
37459,75442968,2,0,1
37460,75444968,3,0,1
37461,75446968,7,0,1
37462,75448968,5,0,1
37463,75450968,2,1,1
37464,75452968,9,1,1
37465,75454968,9,1,1
37466,75456968,4,0,1
37467,75458968,3,0,1
37468,75460968,7,0,1
37469,75462968,11,0,1
37470,75464968,7,0,1
37471,75466968,9,0,1
37472,75468968,98,0,1
37473,75470968,188,1,1
37474,75472969,5,1,1
37475,75474968,5,1,1
37476,75476968,5,0,1
37477,75478968,7,0,1
37478,75480968,1,0,1
37479,75482968,6,0,1
37480,75484968,10,0,1
37481,75486968,7,0,1
37482,75488968,331,0,1
37483,75490968,423,1,1
37484,75492968,9,1,1
37485,75494968,5,1,1
37486,75496968,10,0,1
37487,75498968,10,0,1
37488,75500968,9,0,1
37489,75502968,9,0,1
37490,75504968,9,0,1
37491,75506968,9,0,1
37492,75508968,58,0,1
37493,75510968,28,1,1
37494,75512968,11,1,1
37495,75514968,7,1,1
37496,75516968,9,0,1
37497,75518968,8,0,1
37498,75520968,5,0,1
37499,75522968,10,0,1
37500,75524968,11,0,1
37501,75526968,10,0,1
37502,75528968,13,0,1
37503,75530968,8,1,1
37504,75532968,10,1,1
37505,75534968,19,1,1
37506,75536968,21,0,1
37507,75538968,19,0,1
37508,75540968,16,0,1
37509,75542968,16,0,1
37510,75544968,17,0,1
37511,75546968,19,0,1
37512,75548968,21,0,1
37513,75550968,17,1,1
37514,75552968,20,1,1
37515,75554968,16,1,1
37516,75556968,12,0,1
37517,75558968,19,0,1
37518,75560968,19,0,1
37519,75562968,13,0,1
37520,75564968,20,0,1
37521,75566968,23,0,1
37522,75568968,23,0,1
37523,75570968,19,1,1
37524,75572968,18,1,1
37525,75574968,27,0,1
37526,75576968,25,0,1
37527,75578968,21,0,1
37528,75580968,18,0,1
37529,75582968,28,0,1
37530,75584968,25,0,1
37531,75586968,27,0,1
37532,75588968,160,0,1
37533,75590968,117,1,1
37534,75592968,29,1,1
37535,75594968,53,0,1
37536,75596968,25,0,1
37537,75598968,27,0,1
37538,75600968,21,0,1
37539,75602968,30,0,1
37540,75604968,30,0,1
37541,75606968,31,0,1
37542,75608968,31,0,1
37543,75610968,28,1,1
37544,75612968,30,1,1
37545,75614968,53,0,1
37546,75616968,27,0,1
37547,75618968,33,0,1
37548,75620968,26,0,1
37549,75622968,27,0,1
37550,75624968,31,0,1
37551,75626968,41,0,1
37552,75628968,37,0,1
37553,75630968,31,1,1
37554,75632968,25,1,1
37555,75634968,37,0,1
37556,75636968,41,0,1
37557,75638968,37,0,1
37558,75640968,26,0,1
37559,75642968,25,0,1
37560,75644968,26,0,1
37561,75646968,53,0,1
37562,75648968,28,0,1
37563,75650968,26,1,1
37564,75652968,26,1,1
37565,75654968,29,0,1
37566,75656968,42,0,1
37567,75658968,33,0,1
37568,75660968,29,0,1
37569,75662968,28,0,1
37570,75664968,27,0,1
37571,75666968,40,0,1
37572,75668968,125,0,1
37573,75670968,29,1,1
37574,75672968,25,1,1
37575,75674968,29,0,1
37576,75676968,37,0,1
37577,75678968,30,0,1
37578,75680968,28,0,1
37579,75682968,28,0,1
37580,75684968,27,0,1
37581,75686968,45,0,1
37582,75688968,37,0,1
37583,75690968,31,1,1
37584,75692968,31,1,1
37585,75694968,31,1,1
37586,75696968,47,0,1
37587,75698968,29,0,1
37588,75700968,27,0,1
37589,75702968,35,0,1
37590,75704968,28,0,1
37591,75706968,47,0,1
37592,75708968,35,0,1
37593,75710968,29,1,1
37594,75712968,30,1,1
37595,75714968,47,0,1
37596,75716968,43,0,1
37597,75718968,35,0,1
37598,75720968,31,0,1
37599,75722968,31,0,1
37600,75724968,35,0,1
37601,75726968,47,0,1
37602,75728968,36,0,1
37603,75730968,35,1,1
37604,75732968,30,1,1
37605,75734968,39,0,1
37606,75736968,48,0,1
37607,75738968,37,0,1
37608,75740968,33,0,1
37609,75742968,29,0,1
37610,75744968,31,0,1
37611,75746968,55,0,1
37612,75748968,37,0,1
37613,75750968,36,1,1
37614,75752968,31,1,1
37615,75754968,35,0,1
37616,75756968,55,0,1
37617,75758968,40,0,1
37618,75760968,33,0,1
37619,75762968,39,0,1
37620,75764968,37,0,1
37621,75766968,53,0,1
37622,75768968,42,0,1
37623,75770968,35,1,1
37624,75772968,31,1,1
37625,75774968,42,0,1
37626,75776968,51,0,1
37627,75778968,41,0,1
37628,75780968,39,0,1
37629,75782968,31,0,1
37630,75784968,35,0,1
37631,75786968,45,0,1
37632,75788968,43,0,1
37633,75790968,30,1,1
37634,75792968,31,1,1
37635,75794968,41,0,1
37636,75796968,51,0,1
37637,75798968,40,0,1
37638,75800968,36,0,1
37639,75802968,39,0,1
37640,75804968,35,0,1
37641,75806968,53,0,1
37642,75808968,351,0,1
37643,75810968,150,1,1
37644,75812968,35,1,1
37645,75814968,43,0,1
37646,75816968,41,0,1
37647,75818968,39,0,1
37648,75820968,29,0,1
37649,75822968,35,0,1
37650,75824968,37,0,1
37651,75826968,31,0,1
37652,75828968,43,0,1
37653,75830968,35,1,1
37654,75832968,31,1,1
37655,75834968,29,0,1
37656,75836968,28,0,1
37657,75838968,29,0,1
37658,75840968,29,0,1
37659,75842968,30,0,1
37660,75844968,35,0,1
37661,75846968,26,0,1
37662,75848968,187,0,1
37663,75850968,26,1,1
37664,75852968,27,1,1
37665,75854968,31,0,1
37666,75856968,30,0,1
37667,75858968,30,0,1
37668,75860968,27,0,1
37669,75862968,25,0,1
37670,75864968,27,0,1
37671,75866968,24,0,1
37672,75868968,29,0,1
37673,75870968,28,1,1
37674,75872968,25,1,1
37675,75874968,37,0,1
37676,75876968,31,0,1
37677,75878968,30,0,1
37678,75880968,27,0,1
37679,75882968,26,0,1
37680,75884968,23,0,1
37681,75886968,39,0,1
37682,75888968,37,0,1
37683,75890968,31,1,1
37684,75892968,25,1,1
37685,75894968,34,0,1
37686,75896968,29,0,1
37687,75898968,29,0,1
37688,75900968,21,0,1
37689,75902968,23,0,1
37690,75904968,31,0,1
37691,75906968,26,0,1
37692,75908968,135,0,1
37693,75910968,27,1,1
37694,75912968,30,1,1
37695,75914968,28,0,1
37696,75916968,30,0,1
37697,75918968,30,0,1
37698,75920968,23,0,1
37699,75922968,30,0,1
37700,75924968,29,0,1
37701,75926968,27,0,1
37702,75928968,31,0,1
37703,75930968,29,1,1
37704,75932968,26,1,1
37705,75934968,25,0,1
37706,75936968,22,0,1
37707,75938968,25,0,1
37708,75940968,26,0,1
37709,75942968,25,0,1
37710,75944968,23,0,1
37711,75946968,29,0,1
37712,75948968,159,0,1
37713,75950968,23,1,1
37714,75952968,29,1,1
37715,75954968,28,0,1
37716,75956968,26,0,1
37717,75958968,25,0,1
37718,75960968,25,0,1
37719,75962968,25,0,1
37720,75964968,30,0,1
37721,75966968,30,0,1
37722,75968968,29,0,1
37723,75970968,27,1,1
37724,75972968,27,1,1
37725,75974968,27,0,1
37726,75976968,33,0,1
37727,75978968,25,0,1
37728,75980968,29,0,1
37729,75982968,27,0,1
37730,75984968,25,0,1
37731,75986968,27,0,1
37732,75988968,31,0,1
37733,75990968,18,1,1
37734,75992968,28,1,1
37735,75994968,23,0,1
37736,75996968,25,0,1
37737,75998968,25,0,1
37738,76000968,21,0,1
37739,76002968,27,0,1
37740,76004968,27,0,1
37741,76006968,26,0,1
37742,76008968,38,0,1
37743,76010968,24,1,1
37744,76012968,25,1,1
37745,76014968,29,0,1
37746,76016968,38,0,1
37747,76018968,29,0,1
37748,76020968,33,0,1
37749,76022968,27,0,1
37750,76024968,28,0,1
37751,76026968,37,0,1
37752,76028968,29,1,1
37753,76030968,25,1,1
37754,76032968,30,1,1
37755,76034968,29,0,1
37756,76036968,31,0,1
37757,76038968,31,0,1
37758,76040968,21,0,1
37759,76042968,24,0,1
37760,76044968,35,0,1
37761,76046968,27,0,1
37762,76048968,36,1,1
37763,76050968,29,1,1
37764,76052968,31,1,1
37765,76054968,36,0,1
37766,76056968,27,0,1
37767,76058968,25,0,1
37768,76060968,27,0,1
37769,76062968,29,0,1
37770,76064968,45,0,1
37771,76066968,26,0,1
37772,76068968,37,1,1
37773,76070968,26,1,1
37774,76072968,29,1,1
37775,76074968,29,0,1
37776,76076968,38,0,1
37777,76078968,27,0,1
37778,76080968,26,0,1
37779,76082968,25,0,1
37780,76084968,35,0,1
37781,76086968,30,0,1
37782,76088968,39,1,1
37783,76090968,25,1,1
37784,76092968,29,1,1
37785,76094968,45,0,1
37786,76096968,41,0,1
37787,76098968,27,0,1
37788,76100968,28,0,1
37789,76102968,35,0,1
37790,76104968,41,0,1
37791,76106968,33,0,1
37792,76108968,88,1,1
37793,76110968,29,1,1
37794,76112968,30,1,1
37795,76114968,45,0,1
37796,76116968,31,0,1
37797,76118968,27,0,1
37798,76120968,41,0,1
37799,76122968,25,0,1
37800,76124968,39,0,1
37801,76126968,25,0,1
37802,76128968,104,1,1
37803,76130968,30,1,1
37804,76132968,26,1,1
37805,76134968,42,0,1
37806,76136968,29,0,1
37807,76138968,27,0,1
37808,76140968,25,0,1
37809,76142968,29,0,1
37810,76144968,44,0,1
37811,76146968,41,0,1
37812,76148968,327,1,1
37813,76150968,34,1,1
37814,76152968,35,1,1
37815,76154968,48,0,1
37816,76156968,31,0,1
37817,76158968,36,0,1
37818,76160968,28,0,1
37819,76162968,27,0,1
37820,76164968,43,0,1
37821,76166968,31,0,1
37822,76168968,27,1,1
37823,76170968,26,1,1
37824,76172968,27,1,1
37825,76174968,44,0,1
37826,76176968,39,0,1
37827,76178968,27,0,1
37828,76180968,27,0,1
37829,76182968,33,0,1
37830,76184968,41,0,1
37831,76186968,28,0,1
37832,76188968,293,1,1
37833,76190968,21,1,1
37834,76192968,26,1,1
37835,76194968,39,0,1
37836,76196968,29,0,1
37837,76198968,27,0,1
37838,76200968,23,0,1
37839,76202968,23,0,1
37840,76204968,43,0,1
37841,76206968,37,0,1
37842,76208968,25,1,1
37843,76210968,55,1,1
37844,76212968,23,1,1
37845,76214968,39,0,1
37846,76216968,34,0,1
37847,76218968,29,0,1
37848,76220968,21,0,1
37849,76222968,22,0,1
37850,76224968,41,0,1
37851,76226968,26,0,1
37852,76228968,51,1,1
37853,76230968,23,1,1
37854,76232968,23,1,1
37855,76234968,29,0,1
37856,76236968,28,0,1
37857,76238968,23,0,1
37858,76240968,19,0,1
37859,76242968,29,0,1
37860,76244968,25,0,1
37861,76246968,30,0,1
37862,76248968,73,1,1
37863,76250968,25,1,1
37864,76252968,25,1,1
37865,76254968,19,0,1
37866,76256968,28,0,1
37867,76258968,21,0,1
37868,76260968,23,0,1
37869,76262968,21,0,1
37870,76264968,21,0,1
37871,76266968,28,0,1
37872,76268968,460,1,1
37873,76270968,24,1,1
37874,76272968,25,1,1
37875,76274968,13,0,1
37876,76276968,20,0,1
37877,76278968,26,0,1
37878,76280968,23,0,1
37879,76282968,27,0,1
37880,76284968,21,0,1
37881,76286968,23,0,1
37882,76288968,28,1,1
37883,76290968,25,1,1
37884,76292968,21,1,1
37885,76294968,21,0,1
37886,76296968,28,0,1
37887,76298968,27,0,1
37888,76300968,21,0,1
37889,76302968,23,0,1
37890,76304968,26,0,1
37891,76306968,25,0,1
37892,76308968,26,1,1
37893,76310968,19,1,1
37894,76312968,23,1,1
37895,76314968,25,0,1
37896,76316968,23,0,1
37897,76318968,27,0,1
37898,76320968,17,0,1
37899,76322968,22,0,1
37900,76324968,19,0,1
37901,76326968,23,0,1
37902,76328968,81,1,1
37903,76330968,21,1,1
37904,76332968,25,1,1
37905,76334968,19,0,1
37906,76336968,21,0,1
37907,76338968,24,0,1
37908,76340968,25,0,1
37909,76342968,20,0,1
37910,76344968,21,0,1
37911,76346968,25,0,1
37912,76348968,24,1,1
37913,76350968,21,1,1
37914,76352968,21,1,1
37915,76354968,13,0,1
37916,76356968,27,0,1
37917,76358968,22,0,1
37918,76360968,18,0,1
37919,76362968,25,0,1
37920,76364968,23,0,1
37921,76366968,24,0,1
37922,76368968,23,1,1
37923,76370968,19,1,1
37924,76372968,23,1,1
37925,76374968,23,0,1
37926,76376968,25,0,1
37927,76378968,25,0,1
37928,76380968,17,0,1
37929,76382968,26,0,1
37930,76384968,29,0,1
37931,76386968,28,0,1
37932,76388968,18,1,1
37933,76390968,19,1,1
37934,76392968,20,1,1
37935,76394968,26,0,1
37936,76396968,25,0,1
37937,76398968,27,0,1
37938,76400968,12,0,1
37939,76402968,25,0,1
37940,76404968,19,0,1
37941,76406968,27,0,1
37942,76408968,150,1,1
37943,76410968,21,1,1
37944,76412968,26,1,1
37945,76414968,21,0,1
37946,76416968,23,0,1
37947,76418968,22,0,1
37948,76420968,19,0,1
37949,76422968,21,0,1
37950,76424968,19,0,1
37951,76426968,27,0,1
37952,76428968,20,1,1
37953,76430968,24,1,1
37954,76432968,20,1,1
37955,76434968,18,0,1
37956,76436968,20,0,1
37957,76438968,25,0,1
37958,76440968,25,0,1
37959,76442968,27,0,1
37960,76444968,27,0,1
37961,76446968,22,0,1
37962,76448968,19,1,1
37963,76450968,17,1,1
37964,76452968,26,1,1
37965,76454968,25,0,1
37966,76456968,28,0,1
37967,76458968,24,0,1
37968,76460968,23,0,1
37969,76462968,19,0,1
37970,76464968,22,0,1
37971,76466968,21,0,1
37972,76468968,24,1,1
37973,76470968,17,1,1
37974,76472968,23,1,1
37975,76474968,18,0,1
37976,76476968,25,0,1
37977,76478968,22,0,1
37978,76480968,23,0,1
37979,76482968,25,0,1
37980,76484968,21,0,1
37981,76486968,25,0,1
37982,76488968,18,1,1
37983,76490968,20,1,1
37984,76492968,23,1,1
37985,76494968,21,0,1
37986,76496968,21,0,1
37987,76498968,24,0,1
37988,76500968,23,0,1
37989,76502968,22,0,1
37990,76504968,27,0,1
37991,76506968,20,0,1
37992,76508968,21,1,1
37993,76510968,17,1,1
37994,76512968,20,1,1
37995,76514968,27,0,1
37996,76516968,25,0,1
37997,76518968,19,0,1
37998,76520968,12,0,1
37999,76522968,22,0,1
38000,76524968,9,0,1
38001,76526968,28,0,1
38002,76528968,128,1,1
38003,76530968,19,1,1
38004,76532968,25,1,1
38005,76534968,22,0,1
38006,76536968,19,0,1
38007,76538968,20,0,1
38008,76540968,21,0,1
38009,76542968,21,0,1
38010,76544968,29,0,1
38011,76546968,25,0,1
38012,76548968,26,1,1
38013,76550968,13,1,1
38014,76552968,26,1,1
38015,76554968,43,0,1
38016,76556968,25,0,1
38017,76558968,20,0,1
38018,76560968,13,0,1
38019,76562968,23,0,1
38020,76564968,41,0,1
38021,76566968,29,0,1
38022,76568968,21,1,1
38023,76570968,17,1,1
38024,76572968,24,1,1
38025,76574968,28,0,1
38026,76576968,28,0,1
38027,76578968,24,0,1
38028,76580968,17,0,1
38029,76582968,23,0,1
38030,76584968,25,0,1
38031,76586968,21,0,1
38032,76588968,69,1,1
38033,76590968,21,1,1
38034,76592968,25,1,1
38035,76594968,26,0,1
38036,76596968,25,0,1
38037,76598968,21,0,1
38038,76600968,17,0,1
38039,76602968,17,0,1
38040,76604968,31,0,1
38041,76606968,23,0,1
38042,76608968,25,1,1
38043,76610968,25,1,1
38044,76612968,20,1,1
38045,76614968,27,0,1
38046,76616968,25,0,1
38047,76618968,23,0,1
38048,76620968,16,0,1
38049,76622968,22,0,1
38050,76624968,39,0,1
38051,76626968,28,0,1
38052,76628968,22,1,1
38053,76630968,21,1,1
38054,76632968,22,1,1
38055,76634968,31,0,1
38056,76636968,26,0,1
38057,76638968,24,0,1
38058,76640968,16,0,1
38059,76642968,21,0,1
38060,76644968,36,0,1
38061,76646968,21,0,1
38062,76648968,18,1,1
38063,76650968,17,1,1
38064,76652968,28,1,1
38065,76654968,35,0,1
38066,76656968,26,0,1
38067,76658968,13,0,1
38068,76660968,21,0,1
38069,76662968,23,0,1
38070,76664968,31,0,1
38071,76666968,20,0,1
38072,76668968,14,1,1
38073,76670968,20,1,1
38074,76672968,22,1,1
38075,76674968,29,0,1
38076,76676968,25,0,1
38077,76678968,16,0,1
38078,76680968,17,0,1
38079,76682968,24,0,1
38080,76684968,29,0,1
38081,76686968,19,0,1
38082,76688968,17,1,1
38083,76690968,12,1,1
38084,76692968,27,1,1
38085,76694968,35,0,1
38086,76696968,27,0,1
38087,76698968,21,0,1
38088,76700968,23,0,1
38089,76702968,17,0,1
38090,76704968,33,0,1
38091,76706968,21,0,1
38092,76708968,17,1,1
38093,76710968,24,1,1
38094,76712968,19,1,1
38095,76714968,28,0,1
38096,76716968,23,0,1
38097,76718968,0,0,0
38098,76720968,23,0,1
38099,76722968,27,0,1
38100,76724968,38,0,1
38101,76726968,17,0,1
38102,76728968,16,1,1
38103,76730968,17,1,1
38104,76732968,22,1,1
38105,76734968,56,0,1
38106,76736968,25,0,1
38107,76738968,14,0,1
38108,76740968,21,0,1
38109,76742968,23,0,1
38110,76744968,22,0,1
38111,76746968,22,0,1
38112,76748968,24,1,1
38113,76750968,23,1,1
38114,76752968,27,1,1
38115,76754968,12,0,1
38116,76756968,25,0,1
38117,76758968,21,0,1
38118,76760968,18,0,1
38119,76762968,17,0,1
38120,76764968,23,0,1
38121,76766968,26,0,1
38122,76768968,19,1,1
38123,76770968,17,1,1
38124,76772968,26,1,1
38125,76774968,13,0,1
38126,76776968,26,0,1
38127,76778968,13,0,1
38128,76780968,16,0,1
38129,76782968,23,0,1
38130,76784968,25,0,1
38131,76786968,23,0,1
38132,76788968,24,1,1
38133,76790968,20,1,1
38134,76792968,21,1,1
38135,76794968,19,0,1
38136,76796968,21,0,1
38137,76798968,16,0,1
38138,76800968,20,0,1
38139,76802968,21,0,1
38140,76804968,31,0,1
38141,76806968,20,0,1
38142,76808968,25,1,1
38143,76810968,23,1,1
38144,76812968,29,1,1
38145,76814968,21,0,1
38146,76816968,22,0,1
38147,76818968,22,0,1
38148,76820968,22,0,1
38149,76822968,31,0,1
38150,76824968,29,0,1
38151,76826968,21,0,1
38152,76828968,21,1,1
38153,76830968,21,1,1
38154,76832968,23,1,1
38155,76834968,20,0,1
38156,76836968,18,0,1
38157,76838968,16,0,1
38158,76840968,13,0,1
38159,76842968,23,0,1
38160,76844968,9,0,1
38161,76846968,20,0,1
38162,76848968,16,1,1
38163,76850968,20,1,1
38164,76852968,23,1,1
38165,76854968,24,0,1
38166,76856968,25,0,1
38167,76858968,20,0,1
38168,76860968,22,0,1
38169,76862968,27,0,1
38170,76864968,26,0,1
38171,76866968,21,0,1
38172,76868968,63,1,1
38173,76870968,25,1,1
38174,76872968,25,1,1
38175,76874968,18,0,1
38176,76876968,24,0,1
38177,76878968,22,0,1
38178,76880968,25,0,1
38179,76882968,20,0,1
38180,76884968,21,0,1
38181,76886968,29,0,1
38182,76888968,213,1,1
38183,76890968,23,1,1
38184,76892968,28,1,1
38185,76894968,25,0,1
38186,76896968,25,0,1
38187,76898968,11,0,1
38188,76900968,13,0,1
38189,76902968,20,0,1
38190,76904968,17,0,1
38191,76906968,69,0,1
38192,76908968,250,1,1
38193,76910968,11,1,1
38194,76912968,22,1,1
38195,76914968,28,0,1
38196,76916968,23,0,1
38197,76918968,17,0,1
38198,76920968,21,0,1
38199,76922968,26,0,1
38200,76924968,14,0,1
38201,76926968,135,0,1
38202,76928968,349,1,1
38203,76930968,22,1,1
38204,76932968,29,1,1
38205,76934968,23,0,1
38206,76936968,23,0,1
38207,76938968,17,0,1
38208,76940968,23,0,1
38209,76942968,28,0,1
38210,76944968,25,0,1
38211,76946968,61,0,1
38212,76948968,205,1,1
38213,76950968,0,1,0
38214,76952968,23,1,1
38215,76954968,25,0,1
38216,76956968,18,0,1
38217,76958968,20,0,1
38218,76960968,13,0,1
38219,76962968,31,0,1
38220,76964968,25,0,1
38221,76966968,102,0,1
38222,76968968,255,1,1
38223,76970968,19,1,1
38224,76972968,45,1,1
38225,76974968,18,0,1
38226,76976968,26,0,1
38227,76978968,13,0,1
38228,76980968,19,0,1
38229,76982968,37,0,1
38230,76984968,23,0,1
38231,76986968,18,0,1
38232,76988968,24,1,1
38233,76990968,20,1,1
38234,76992968,36,1,1
38235,76994968,21,0,1
38236,76996968,21,0,1
38237,76998968,11,0,1
38238,77000968,12,0,1
38239,77002968,30,0,1
38240,77004968,19,0,1
38241,77006968,26,0,1
38242,77008968,26,1,1
38243,77010968,23,1,1
38244,77012968,30,1,1
38245,77014968,23,0,1
38246,77016968,22,0,1
38247,77018968,12,0,1
38248,77020968,21,0,1
38249,77022968,31,0,1
38250,77024968,19,0,1
38251,77026968,28,0,1
38252,77028968,18,1,1
38253,77030968,21,1,1
38254,77032968,35,1,1
38255,77034968,23,0,1
38256,77036968,19,0,1
38257,77038968,20,0,1
38258,77040968,18,0,1
38259,77042968,27,0,1
38260,77044968,19,0,1
38261,77046968,21,0,1
38262,77048968,21,1,1
38263,77050968,12,1,1
38264,77052968,31,1,1
38265,77054968,18,0,1
38266,77056968,21,0,1
38267,77058968,20,0,1
38268,77060968,12,0,1
38269,77062968,27,0,1
38270,77064968,21,0,1
38271,77066968,25,0,1
38272,77068968,11,1,1
38273,77070968,17,1,1
38274,77072968,31,1,1
38275,77074968,25,0,1
38276,77076968,25,0,1
38277,77078968,17,0,1
38278,77080968,21,0,1
38279,77082968,40,0,1
38280,77084968,21,0,1
38281,77086968,24,0,1
38282,77088968,21,1,1
38283,77090968,21,1,1
38284,77092968,35,1,1
38285,77094968,25,0,1
38286,77096968,19,0,1
38287,77098968,16,0,1
38288,77100968,19,0,1
38289,77102968,29,0,1
38290,77104968,19,0,1
38291,77106968,21,0,1
38292,77108968,22,1,1
38293,77110968,13,1,1
38294,77112968,36,1,1
38295,77114968,23,0,1
38296,77116968,20,0,1
38297,77118968,21,0,1
38298,77120968,23,0,1
38299,77122968,35,0,1
38300,77124968,21,0,1
38301,77126968,25,0,1
38302,77128968,20,1,1
38303,77130968,19,1,1
38304,77132968,36,1,1
38305,77134968,23,0,1
38306,77136968,22,0,1
38307,77138968,18,0,1
38308,77140968,23,0,1
38309,77142968,29,0,1
38310,77144968,26,0,1
38311,77146968,23,0,1
38312,77148968,22,1,1
38313,77150968,13,1,1
38314,77152968,23,1,1
38315,77154968,17,0,1
38316,77156968,23,0,1
38317,77158968,22,0,1
38318,77160968,25,0,1
38319,77162968,19,0,1
38320,77164968,23,0,1
38321,77166968,21,0,1
38322,77168968,24,1,1
38323,77170968,22,1,1
38324,77172968,22,1,1
38325,77174968,25,0,1
38326,77176968,27,0,1
38327,77178968,24,0,1
38328,77180968,19,0,1
38329,77182968,21,0,1
38330,77184968,21,0,1
38331,77186968,24,0,1
38332,77188968,19,1,1
38333,77190968,22,1,1
38334,77192968,13,0,1
38335,77194968,21,0,1
38336,77196968,30,0,1
38337,77198968,17,0,1
38338,77200968,23,0,1
38339,77202968,27,0,1
38340,77204968,27,0,1
38341,77206968,26,0,1
38342,77208968,17,1,1
38343,77210968,23,1,1
38344,77212968,34,0,1
38345,77214968,20,0,1
38346,77216968,21,0,1
38347,77218968,13,0,1
38348,77220968,22,0,1
38349,77222968,16,0,1
38350,77224968,25,0,1
38351,77226968,27,0,1
38352,77228968,21,1,1
38353,77230968,17,1,1
38354,77232968,28,0,1
38355,77234968,23,0,1
38356,77236968,19,0,1
38357,77238968,13,0,1
38358,77240968,13,0,1
38359,77242968,25,0,1
38360,77244968,23,0,1
38361,77246968,112,0,1
38362,77248968,41,1,1
38363,77250968,19,1,1
38364,77252968,36,0,1
38365,77254968,23,0,1
38366,77256968,25,0,1
38367,77258968,12,0,1
38368,77260968,23,0,1
38369,77262968,16,0,1
38370,77264968,27,0,1
38371,77266968,21,0,1
38372,77268968,17,1,1
38373,77270968,13,1,1
38374,77272968,25,0,1
38375,77274968,22,0,1
38376,77276968,21,0,1
38377,77278968,13,0,1
38378,77280968,23,0,1
38379,77282968,22,0,1
38380,77284968,21,0,1
38381,77286968,21,0,1
38382,77288968,23,1,1
38383,77290968,18,1,1
38384,77292968,21,0,1
38385,77294968,20,0,1
38386,77296968,19,0,1
38387,77298968,12,0,1
38388,77300968,18,0,1
38389,77302968,18,0,1
38390,77304968,23,0,1
38391,77306968,25,0,1
38392,77308968,24,1,1
38393,77310968,21,1,1
38394,77312968,23,0,1
38395,77314968,21,0,1
38396,77316968,21,0,1
38397,77318968,22,0,1
38398,77320968,19,0,1
38399,77322968,21,0,1
38400,77324968,25,0,1
38401,77326968,28,0,1
38402,77328968,19,1,1
38403,77330968,0,1,0
38404,77332968,19,0,1
38405,77334968,23,0,1
38406,77336968,21,0,1
38407,77338968,23,0,1
38408,77340968,21,0,1
38409,77342968,22,0,1
38410,77344968,21,0,1
38411,77346968,24,0,1
38412,77348968,23,1,1
38413,77350968,17,1,1
38414,77352968,23,0,1
38415,77354968,22,0,1
38416,77356968,25,0,1
38417,77358968,20,0,1
38418,77360968,23,0,1
38419,77362968,16,0,1
38420,77364968,24,0,1
38421,77366968,27,0,1
38422,77368968,21,1,1
38423,77370968,21,1,1
38424,77372968,29,0,1
38425,77374968,23,0,1
38426,77376968,20,0,1
38427,77378968,13,0,1
38428,77380968,16,0,1
38429,77382968,17,0,1
38430,77384968,22,0,1
38431,77386968,135,0,1
38432,77388968,21,1,1
38433,77390968,21,1,1
38434,77392968,22,0,1
38435,77394968,18,0,1
38436,77396968,18,0,1
38437,77398968,13,0,1
38438,77400968,22,0,1
38439,77402968,20,0,1
38440,77404968,20,0,1
38441,77406968,27,0,1
38442,77408968,24,1,1
38443,77410968,22,1,1
38444,77412968,21,0,1
38445,77414968,25,0,1
38446,77416968,20,0,1
38447,77418968,9,0,1
38448,77420968,14,0,1
38449,77422968,21,0,1
38450,77424968,21,0,1
38451,77426968,107,0,1
38452,77428968,22,1,1
38453,77430968,21,1,1
38454,77432968,26,0,1
38455,77434968,24,0,1
38456,77436968,19,0,1
38457,77438968,17,0,1
38458,77440968,21,0,1
38459,77442968,25,0,1
38460,77444968,21,0,1
38461,77446968,21,0,1
38462,77448968,18,1,1
38463,77450968,21,1,1
38464,77452968,21,0,1
38465,77454968,27,0,1
38466,77456968,21,0,1
38467,77458968,17,0,1
38468,77460968,22,0,1
38469,77462968,33,0,1
38470,77464968,23,0,1
38471,77466968,140,0,1
38472,77468968,17,1,1
38473,77470968,18,1,1
38474,77472968,44,0,1
38475,77474968,24,0,1
38476,77476968,20,0,1
38477,77478968,20,0,1
38478,77480968,22,0,1
38479,77482968,44,0,1
38480,77484968,23,0,1
38481,77486968,19,0,1
38482,77488968,20,1,1
38483,77490968,21,1,1
38484,77492968,29,0,1
38485,77494968,19,0,1
38486,77496968,22,0,1
38487,77498968,13,0,1
38488,77500968,22,0,1
38489,77502968,26,0,1
38490,77504968,24,0,1
38491,77506968,86,0,1
38492,77508968,21,1,1
38493,77510968,16,1,1
38494,77512968,27,0,1
38495,77514968,17,0,1
38496,77516968,12,0,1
38497,77518968,21,0,1
38498,77520968,23,0,1
38499,77522968,29,0,1
38500,77524968,24,0,1
38501,77526968,23,0,1
38502,77528968,19,1,1
38503,77530968,23,1,1
38504,77532968,41,0,1
38505,77534968,20,0,1
38506,77536968,23,0,1
38507,77538968,17,0,1
38508,77540968,18,0,1
38509,77542968,41,0,1
38510,77544968,25,0,1
38511,77546968,39,0,1
38512,77548968,24,1,1
38513,77550968,23,1,1
38514,77552968,29,0,1
38515,77554968,20,0,1
38516,77556968,25,0,1
38517,77558968,21,0,1
38518,77560968,19,0,1
38519,77562968,28,0,1
38520,77564968,19,0,1
38521,77566968,200,0,1
38522,77568968,23,1,1
38523,77570968,16,1,1
38524,77572968,31,0,1
38525,77574968,22,0,1
38526,77576968,25,0,1
38527,77578968,17,0,1
38528,77580968,16,0,1
38529,77582968,33,0,1
38530,77584968,25,0,1
38531,77586968,311,0,1
38532,77588968,23,1,1
38533,77590968,19,1,1
38534,77592968,30,0,1
38535,77594968,21,0,1
38536,77596968,22,0,1
38537,77598968,22,0,1
38538,77600968,18,0,1
38539,77602968,28,0,1
38540,77604968,18,0,1
38541,77606968,220,0,1
38542,77608968,12,1,1
38543,77610968,23,1,1
38544,77612968,35,0,1
38545,77614968,24,0,1
38546,77616968,22,0,1
38547,77618968,23,0,1
38548,77620968,17,0,1
38549,77622968,39,0,1
38550,77624968,21,0,1
38551,77626968,391,0,1
38552,77628968,21,1,1
38553,77630968,16,1,1
38554,77632968,29,0,1
38555,77634968,24,0,1
38556,77636968,17,0,1
38557,77638968,13,0,1
38558,77640968,21,0,1
38559,77642968,36,0,1
38560,77644968,25,0,1
38561,77646968,28,1,1
38562,77648968,22,1,1
38563,77650968,16,1,1
38564,77652968,28,0,1
38565,77654968,21,0,1
38566,77656968,19,0,1
38567,77658968,21,0,1
38568,77660968,25,0,1
38569,77662968,25,0,1
38570,77664968,24,0,1
38571,77666968,27,1,1
38572,77668968,16,1,1
38573,77670968,13,1,1
38574,77672968,21,0,1
38575,77674968,21,0,1
38576,77676968,27,0,1
38577,77678968,17,0,1
38578,77680968,21,0,1
38579,77682968,19,0,1
38580,77684968,25,0,1
38581,77686968,26,1,1
38582,77688968,18,1,1
38583,77690968,20,1,1
38584,77692968,20,0,1
38585,77694968,19,0,1
38586,77696968,13,0,1
38587,77698968,19,0,1
38588,77700968,18,0,1
38589,77702968,21,0,1
38590,77704968,29,0,1
38591,77706968,126,1,1
38592,77708968,20,1,1
38593,77710968,24,1,1
38594,77712968,23,0,1
38595,77714968,23,0,1
38596,77716968,23,0,1
38597,77718968,12,0,1
38598,77720968,17,0,1
38599,77722968,31,0,1
38600,77724968,22,0,1
38601,77726968,28,1,1
38602,77728968,17,1,1
38603,77730968,21,1,1
38604,77732968,16,0,1
38605,77734968,19,0,1
38606,77736968,18,0,1
38607,77738968,21,0,1
38608,77740968,21,0,1
38609,77742968,9,0,1
38610,77744968,29,0,1
38611,77746968,210,1,1
38612,77748968,22,1,1
38613,77750968,16,1,1
38614,77752968,13,0,1
38615,77754968,25,0,1
38616,77756968,23,0,1
38617,77758968,21,0,1
38618,77760968,17,0,1
38619,77762968,13,0,1
38620,77764968,29,0,1
38621,77766968,25,1,1
38622,77768968,24,1,1
38623,77770968,17,1,1
38624,77772968,17,0,1
38625,77774968,26,0,1
38626,77776968,21,0,1
38627,77778968,18,0,1
38628,77780968,16,0,1
38629,77782969,21,0,1
38630,77784968,18,0,1
38631,77786968,24,1,1
38632,77788968,19,1,1
38633,77790968,21,1,1
38634,77792968,21,0,1
38635,77794968,19,0,1
38636,77796968,23,0,1
38637,77798968,24,0,1
38638,77800968,20,0,1
38639,77802968,20,0,1
38640,77804968,23,0,1
38641,77806968,77,1,1
38642,77808968,25,1,1
38643,77810968,17,1,1
38644,77812968,22,0,1
38645,77814968,20,0,1
38646,77816968,19,0,1
38647,77818968,21,0,1
38648,77820968,14,0,1
38649,77822969,17,0,1
38650,77824968,28,0,1
38651,77826968,25,1,1
38652,77828968,8,1,1
38653,77830968,11,1,1
38654,77832968,17,0,1
38655,77834968,18,0,1
38656,77836968,21,0,1
38657,77838968,23,0,1
38658,77840968,12,0,1
38659,77842968,13,0,1
38660,77844968,21,0,1
38661,77846968,73,1,1
38662,77848968,25,1,1
38663,77850968,16,1,1
38664,77852968,19,0,1
38665,77854968,21,0,1
38666,77856968,24,0,1
38667,77858968,21,0,1
38668,77860968,21,0,1
38669,77862969,20,0,1
38670,77864968,24,0,1
38671,77866968,373,1,1
38672,77868968,19,1,1
38673,77870968,19,1,1
38674,77872968,24,0,1
38675,77874968,19,0,1
38676,77876968,19,0,1
38677,77878968,19,0,1
38678,77880968,25,0,1
38679,77882968,27,0,1
38680,77884968,19,0,1
38681,77886968,23,1,1
38682,77888968,22,1,1
38683,77890968,27,1,1
38684,77892968,25,0,1
38685,77894968,24,0,1
38686,77896968,19,0,1
38687,77898968,22,0,1
38688,77900968,40,0,1
38689,77902969,22,0,1
38690,77904968,23,0,1
38691,77906968,267,1,1
38692,77908968,24,1,1
38693,77910968,31,1,1
38694,77912968,16,0,1
38695,77914968,25,0,1
38696,77916968,21,0,1
38697,77918968,23,0,1
38698,77920968,31,0,1
38699,77922968,17,0,1
38700,77924968,22,0,1
38701,77926968,21,1,1
38702,77928968,16,1,1
38703,77930968,25,1,1
38704,77932968,23,0,1
38705,77934968,20,0,1
38706,77936968,22,0,1
38707,77938968,16,0,1
38708,77940968,35,0,1
38709,77942969,19,0,1
38710,77944968,29,0,1
38711,77946968,22,1,1
38712,77948968,18,1,1
38713,77950968,35,1,1
38714,77952968,20,0,1
38715,77954968,25,0,1
38716,77956968,18,0,1
38717,77958968,17,0,1
38718,77960968,36,0,1
38719,77962968,29,0,1
38720,77964968,21,0,1
38721,77966968,87,1,1
38722,77968968,19,1,1
38723,77970968,26,1,1
38724,77972968,679,0,1
38725,77974968,17,0,1
38726,77976968,18,0,1
38727,77978968,20,0,1
38728,77980968,31,0,1
38729,77982969,20,0,1
38730,77984968,25,0,1
38731,77986968,17,1,1
38732,77988968,13,1,1
38733,77990968,25,1,1
38734,77992968,16,0,1
38735,77994968,18,0,1
38736,77996968,16,0,1
38737,77998968,11,0,1
38738,78000968,31,0,1
38739,78002968,21,0,1
38740,78004968,19,0,1
38741,78006968,19,1,1
38742,78008968,14,1,1
38743,78010968,37,1,1
38744,78012968,19,0,1
38745,78014968,21,0,1
38746,78016968,19,0,1
38747,78018968,21,0,1
38748,78020968,29,0,1
38749,78022969,22,0,1
38750,78024968,17,0,1
38751,78026968,0,1,0
38752,78028968,13,1,1
38753,78030968,27,1,1
38754,78032968,19,0,1
38755,78034968,25,0,1
38756,78036968,21,0,1
38757,78038968,13,0,1
38758,78040968,29,0,1
38759,78042968,18,0,1
38760,78044968,24,0,1
38761,78046968,24,1,1
38762,78048968,16,1,1
38763,78050968,25,1,1
38764,78052968,17,0,1
38765,78054968,22,0,1
38766,78056968,21,0,1
38767,78058968,20,0,1
38768,78060968,35,0,1
38769,78062969,28,0,1
38770,78064968,27,0,1
38771,78066968,182,1,1
38772,78068968,23,1,1
38773,78070968,23,1,1
38774,78072968,27,0,1
38775,78074968,23,0,1
38776,78076968,23,0,1
38777,78078968,17,0,1
38778,78080968,25,0,1
38779,78082968,25,0,1
38780,78084968,23,0,1
38781,78086968,27,1,1
38782,78088968,22,1,1
38783,78090968,21,1,1
38784,78092968,22,0,1
38785,78094968,25,0,1
38786,78096968,13,0,1
38787,78098968,15,0,1
38788,78100968,13,0,1
38789,78102969,21,0,1
38790,78104968,25,0,1
38791,78106968,23,1,1
38792,78108968,22,1,1
38793,78110968,19,1,1
38794,78112968,17,0,1
38795,78114968,25,0,1
38796,78116968,23,0,1
38797,78118968,17,0,1
38798,78120968,14,0,1
38799,78122968,21,0,1
38800,78124968,20,0,1
38801,78126968,47,1,1
38802,78128968,20,1,1
38803,78130968,19,1,1
38804,78132968,19,0,1
38805,78134968,26,0,1
38806,78136968,17,0,1
38807,78138968,21,0,1
38808,78140968,16,0,1
38809,78142969,23,0,1
38810,78144968,21,0,1
38811,78146968,19,1,1
38812,78148968,16,1,1
38813,78150968,29,1,1
38814,78152968,39,0,1
38815,78154968,19,0,1
38816,78156968,21,0,1
38817,78158968,20,0,1
38818,78160968,22,0,1
38819,78162968,23,0,1
38820,78164968,26,0,1
38821,78166968,21,1,1
38822,78168968,22,1,1
38823,78170968,58,1,1
38824,78172968,24,0,1
38825,78174968,20,0,1
38826,78176968,20,0,1
38827,78178968,17,0,1
38828,78180968,22,0,1
38829,78182969,23,0,1
38830,78184968,25,0,1
38831,78186968,170,1,1
38832,78188968,16,1,1
38833,78190968,17,1,1
38834,78192968,21,0,1
38835,78194968,26,0,1
38836,78196968,23,0,1
38837,78198968,22,0,1
38838,78200968,16,0,1
38839,78202968,26,0,1
38840,78204968,25,0,1
38841,78206968,20,1,1
38842,78208968,19,1,1
38843,78210968,20,1,1
38844,78212968,26,0,1
38845,78214968,20,0,1
38846,78216968,21,0,1
38847,78218968,21,0,1
38848,78220968,23,0,1
38849,78222969,25,0,1
38850,78224968,24,0,1
38851,78226968,22,1,1
38852,78228968,23,1,1
38853,78230968,23,1,1
38854,78232968,22,0,1
38855,78234968,22,0,1
38856,78236968,23,0,1
38857,78238968,19,0,1
38858,78240968,25,0,1
38859,78242968,21,0,1
38860,78244968,25,0,1
38861,78246968,188,1,1
38862,78248968,19,1,1
38863,78250968,23,1,1
38864,78252968,21,0,1
38865,78254968,25,0,1
38866,78256968,18,0,1
38867,78258968,12,0,1
38868,78260968,16,0,1
38869,78262969,28,0,1
38870,78264968,57,0,1
38871,78266968,397,1,1
38872,78268968,23,1,1
38873,78270968,18,1,1
38874,78272968,26,0,1
38875,78274968,21,0,1
38876,78276968,22,0,1
38877,78278968,17,0,1
38878,78280968,23,0,1
38879,78282968,23,0,1
38880,78284968,25,0,1
38881,78286968,211,1,1
38882,78288968,25,1,1
38883,78290968,27,1,1
38884,78292968,18,0,1
38885,78294968,17,0,1
38886,78296968,17,0,1
38887,78298968,16,0,1
38888,78300968,27,0,1
38889,78302969,22,0,1
38890,78304968,25,0,1
38891,78306968,21,1,1
38892,78308968,19,1,1
38893,78310968,18,1,1
38894,78312968,20,0,1
38895,78314968,21,0,1
38896,78316968,21,0,1
38897,78318968,17,0,1
38898,78320968,25,0,1
38899,78322968,21,0,1
38900,78324968,23,0,1
38901,78326968,142,1,1
38902,78328968,17,1,1
38903,78330968,21,1,1
38904,78332968,18,0,1
38905,78334968,23,0,1
38906,78336968,16,0,1
38907,78338968,20,0,1
38908,78340968,24,0,1
38909,78342969,29,0,1
38910,78344968,20,0,1
38911,78346968,20,1,1
38912,78348968,20,1,1
38913,78350968,18,1,1
38914,78352968,25,0,1
38915,78354968,25,0,1
38916,78356968,17,0,1
38917,78358968,20,0,1
38918,78360968,21,0,1
38919,78362968,21,0,1
38920,78364968,24,0,1
38921,78366968,84,1,1
38922,78368968,22,1,1
38923,78370968,24,1,1
38924,78372968,20,0,1
38925,78374968,25,0,1
38926,78376968,21,0,1
38927,78378968,19,0,1
38928,78380968,24,0,1
38929,78382969,23,0,1
38930,78384968,20,0,1
38931,78386968,20,1,1
38932,78388968,18,1,1
38933,78390968,23,1,1
38934,78392968,26,0,1
38935,78394968,21,0,1
38936,78396968,24,0,1
38937,78398968,14,0,1
38938,78400968,29,0,1
38939,78402968,19,0,1
38940,78404968,20,0,1
38941,78406968,17,1,1
38942,78408968,21,1,1
38943,78410968,41,1,1
38944,78412968,23,0,1
38945,78414968,25,0,1
38946,78416968,20,0,1
38947,78418968,13,0,1
38948,78420968,36,0,1
38949,78422969,26,0,1
38950,78424968,23,0,1
38951,78426968,127,1,1
38952,78428968,18,1,1
38953,78430968,36,1,1
38954,78432968,21,0,1
38955,78434968,25,0,1
38956,78436968,17,0,1
38957,78438968,23,0,1
38958,78440968,26,0,1
38959,78442968,27,0,1
38960,78444968,25,0,1
38961,78446968,25,1,1
38962,78448968,16,1,1
38963,78450968,27,1,1
38964,78452968,21,0,1
38965,78454968,20,0,1
38966,78456968,23,0,1
38967,78458968,21,0,1
38968,78460968,43,0,1
38969,78462969,24,0,1
38970,78464968,75,0,1
38971,78466968,299,1,1
38972,78468968,17,1,1
38973,78470968,30,1,1
38974,78472968,19,0,1
38975,78474968,21,0,1
38976,78476968,20,0,1
38977,78478968,18,0,1
38978,78480968,28,0,1
38979,78482968,23,0,1
38980,78484968,23,0,1
38981,78486968,25,1,1
38982,78488968,17,1,1
38983,78490968,25,1,1
38984,78492968,23,0,1
38985,78494968,23,0,1
38986,78496968,21,0,1
38987,78498968,19,0,1
38988,78500968,27,0,1
38989,78502969,25,0,1
38990,78504968,25,0,1
38991,78506968,21,1,1
38992,78508968,22,1,1
38993,78510968,29,1,1
38994,78512968,27,0,1
38995,78514968,36,0,1
38996,78516968,13,0,1
38997,78518968,14,0,1
38998,78520968,29,0,1
38999,78522968,20,0,1
39000,78524968,25,0,1
39001,78526968,17,1,1
39002,78528968,19,1,1
39003,78530968,30,1,1
39004,78532968,18,0,1
39005,78534968,21,0,1
39006,78536968,22,0,1
39007,78538968,20,0,1
39008,78540968,35,0,1
39009,78542969,30,0,1
39010,78544968,25,0,1
39011,78546968,19,1,1
39012,78548968,21,1,1
39013,78550968,34,1,1
39014,78552968,18,0,1
39015,78554968,18,0,1
39016,78556968,14,0,1
39017,78558968,22,0,1
39018,78560968,29,0,1
39019,78562968,27,0,1
39020,78564968,20,0,1
39021,78566968,21,1,1
39022,78568968,21,1,1
39023,78570968,31,1,1
39024,78572968,27,0,1
39025,78574968,17,0,1
39026,78576968,3,0,1
39027,78578968,16,0,1
39028,78580968,29,0,1
39029,78582969,26,0,1
39030,78584968,87,0,1
39031,78586968,217,1,1
39032,78588968,16,1,1
39033,78590968,29,1,1
39034,78592968,21,0,1
39035,78594968,23,0,1
39036,78596968,24,0,1
39037,78598968,22,0,1
39038,78600968,11,0,1
39039,78602968,26,0,1
39040,78604968,19,0,1
39041,78606968,12,1,1
39042,78608968,23,1,1
39043,78610968,18,1,1
39044,78612968,20,0,1
39045,78614968,20,0,1
39046,78616968,21,0,1
39047,78618968,25,0,1
39048,78620968,16,0,1
39049,78622969,26,0,1
39050,78624968,26,0,1
39051,78626968,18,1,1
39052,78628968,24,1,1
39053,78630968,18,1,1
39054,78632968,39,0,1
39055,78634968,26,0,1
39056,78636968,19,0,1
39057,78638968,22,0,1
39058,78640968,19,0,1
39059,78642968,29,0,1
39060,78644968,21,0,1
39061,78646968,25,1,1
39062,78648968,17,1,1
39063,78650968,30,0,1
39064,78652968,24,0,1
39065,78654968,27,0,1
39066,78656968,21,0,1
39067,78658968,20,0,1
39068,78660968,23,0,1
39069,78662969,34,0,1
39070,78664968,21,0,1
39071,78666968,22,1,1
39072,78668968,19,1,1
39073,78670968,22,1,1
39074,78672968,27,0,1
39075,78674968,26,0,1
39076,78676968,21,0,1
39077,78678968,16,0,1
39078,78680968,19,0,1
39079,78682968,24,0,1
39080,78684968,21,0,1
39081,78686968,19,1,1
39082,78688968,18,1,1
39083,78690968,24,1,1
39084,78692968,22,0,1
39085,78694968,21,0,1
39086,78696968,20,0,1
39087,78698968,19,0,1
39088,78700968,22,0,1
39089,78702969,35,0,1
39090,78704968,25,0,1
39091,78706968,21,1,1
39092,78708968,21,1,1
39093,78710968,22,1,1
39094,78712968,17,0,1
39095,78714968,25,0,1
39096,78716968,22,0,1
39097,78718968,21,0,1
39098,78720968,21,0,1
39099,78722968,19,0,1
39100,78724968,24,0,1
39101,78726968,19,1,1
39102,78728968,24,1,1
39103,78730968,25,1,1
39104,78732968,20,0,1
39105,78734968,25,0,1
39106,78736968,21,0,1
39107,78738968,19,0,1
39108,78740968,28,0,1
39109,78742969,22,0,1
39110,78744968,25,0,1
39111,78746968,19,1,1
39112,78748968,21,1,1
39113,78750968,21,1,1
39114,78752968,21,0,1
39115,78754968,24,0,1
39116,78756968,19,0,1
39117,78758968,22,0,1
39118,78760968,19,0,1
39119,78762968,25,0,1
39120,78764968,143,0,1
39121,78766968,139,1,1
39122,78768968,17,1,1
39123,78770968,27,0,1
39124,78772968,25,0,1
39125,78774968,23,0,1
39126,78776968,18,0,1
39127,78778968,13,0,1
39128,78780968,21,0,1
39129,78782969,31,0,1
39130,78784968,269,0,1
39131,78786968,295,1,1
39132,78788968,21,1,1
39133,78790968,40,0,1
39134,78792968,21,0,1
39135,78794968,25,0,1
39136,78796968,17,0,1
39137,78798968,13,0,1
39138,78800968,25,0,1
39139,78802968,23,0,1
39140,78804968,21,0,1
39141,78806968,19,1,1
39142,78808968,22,1,1
39143,78810968,31,0,1
39144,78812968,23,0,1
39145,78814968,18,0,1
39146,78816968,13,0,1
39147,78818968,26,0,1
39148,78820968,27,0,1
39149,78822969,25,0,1
39150,78824968,376,0,1
39151,78826968,378,1,1
39152,78828968,41,1,1
39153,78830968,27,0,1
39154,78832968,23,0,1
39155,78834968,25,0,1
39156,78836968,23,0,1
39157,78838968,27,0,1
39158,78840968,20,0,1
39159,78842968,26,0,1
39160,78844968,347,0,1
39161,78846968,367,1,1
39162,78848968,23,1,1
39163,78850968,24,0,1
39164,78852968,21,0,1
39165,78854968,23,0,1
39166,78856968,20,0,1
39167,78858968,31,0,1
39168,78860968,23,0,1
39169,78862969,37,0,1
39170,78864968,487,0,1
39171,78866968,495,1,1
39172,78868968,35,1,1
39173,78870968,31,0,1
39174,78872968,20,0,1
39175,78874968,23,0,1
39176,78876968,21,0,1
39177,78878968,31,0,1
39178,78880968,23,0,1
39179,78882968,29,0,1
39180,78884968,26,0,1
39181,78886968,19,1,1
39182,78888968,36,1,1
39183,78890968,24,0,1
39184,78892968,22,0,1
39185,78894968,26,0,1
39186,78896968,19,0,1
39187,78898968,30,0,1
39188,78900968,17,0,1
39189,78902969,29,0,1
39190,78904968,25,0,1
39191,78906968,0,1,0
39192,78908968,35,1,1
39193,78910968,23,0,1
39194,78912968,25,0,1
39195,78914968,21,0,1
39196,78916968,21,0,1
39197,78918968,27,0,1
39198,78920968,21,0,1
39199,78922968,27,0,1
39200,78924968,27,0,1
39201,78926968,21,1,1
39202,78928968,37,1,1
39203,78930968,21,0,1
39204,78932968,23,0,1
39205,78934968,22,0,1
39206,78936968,17,0,1
39207,78938968,33,0,1
39208,78940968,25,0,1
39209,78942969,29,0,1
39210,78944968,88,0,1
39211,78946968,24,1,1
39212,78948968,37,1,1
39213,78950968,23,0,1
39214,78952968,24,0,1
39215,78954968,24,0,1
39216,78956968,23,0,1
39217,78958968,28,0,1
39218,78960968,25,0,1
39219,78962968,25,0,1
39220,78964968,23,0,1
39221,78966968,19,1,1
39222,78968968,31,1,1
39223,78970968,23,0,1
39224,78972968,20,0,1
39225,78974968,23,0,1
39226,78976968,13,0,1
39227,78978968,25,0,1
39228,78980968,22,0,1
39229,78982969,25,0,1
39230,78984968,25,0,1
39231,78986968,19,1,1
39232,78988968,29,1,1
39233,78990968,23,0,1
39234,78992968,23,0,1
39235,78994968,27,0,1
39236,78996968,17,0,1
39237,78998968,28,0,1
39238,79000968,25,0,1
39239,79002968,24,0,1
39240,79004968,23,0,1
39241,79006968,23,1,1
39242,79008968,25,1,1
39243,79010968,26,0,1
39244,79012968,22,0,1
39245,79014968,25,0,1
39246,79016968,23,0,1
39247,79018968,13,0,1
39248,79020968,27,0,1
39249,79022969,26,0,1
39250,79024968,27,0,1
39251,79026968,19,1,1
39252,79028968,21,1,1
39253,79030968,21,0,1
39254,79032968,27,0,1
39255,79034968,20,0,1
39256,79036968,23,0,1
39257,79038968,21,0,1
39258,79040968,23,0,1
39259,79042968,25,0,1
39260,79044968,125,0,1
39261,79046968,24,1,1
39262,79048968,21,1,1
39263,79050968,23,0,1
39264,79052968,25,0,1
39265,79054968,23,0,1
39266,79056968,21,0,1
39267,79058968,21,0,1
39268,79060968,23,0,1
39269,79062969,27,0,1
39270,79064968,44,0,1
39271,79066968,23,1,1
39272,79068968,26,1,1
39273,79070968,21,0,1
39274,79072968,25,0,1
39275,79074968,25,0,1
39276,79076968,14,0,1
39277,79078968,27,0,1
39278,79080968,21,0,1
39279,79082968,25,0,1
39280,79084968,23,0,1
39281,79086968,21,1,1
39282,79088968,23,1,1
39283,79090968,25,0,1
39284,79092968,22,0,1
39285,79094968,22,0,1
39286,79096968,19,0,1
39287,79098968,21,0,1
39288,79100968,23,0,1
39289,79102969,29,0,1
39290,79104968,278,0,1
39291,79106968,20,1,1
39292,79108968,18,1,1
39293,79110968,21,0,1
39294,79112968,25,0,1
39295,79114968,19,0,1
39296,79116968,21,0,1
39297,79118968,16,0,1
39298,79120968,21,0,1
39299,79122968,26,0,1
39300,79124968,28,0,1
39301,79126968,22,1,1
39302,79128968,17,1,1
39303,79130968,19,0,1
39304,79132968,28,0,1
39305,79134968,19,0,1
39306,79136968,18,0,1
39307,79138968,24,0,1
39308,79140968,21,0,1
39309,79142969,29,0,1
39310,79144968,228,0,1
39311,79146968,21,1,1
39312,79148968,23,1,1
39313,79150968,24,0,1
39314,79152968,22,0,1
39315,79154968,22,0,1
39316,79156968,16,0,1
39317,79158968,25,0,1
39318,79160968,23,0,1
39319,79162968,25,0,1
39320,79164968,27,0,1
39321,79166968,26,1,1
39322,79168968,21,1,1
39323,79170968,24,0,1
39324,79172968,25,0,1
39325,79174968,26,0,1
39326,79176968,24,0,1
39327,79178968,20,0,1
39328,79180968,25,0,1
39329,79182969,27,0,1
39330,79184968,143,1,1
39331,79186968,25,1,1
39332,79188968,19,1,1
39333,79190968,25,0,1
39334,79192968,26,0,1
39335,79194968,24,0,1
39336,79196968,19,0,1
39337,79198968,26,0,1
39338,79200968,22,0,1
39339,79202968,23,0,1
39340,79204968,25,1,1
39341,79206968,17,1,1
39342,79208968,25,1,1
39343,79210968,21,0,1
39344,79212968,24,0,1
39345,79214968,25,0,1
39346,79216968,17,0,1
39347,79218968,20,0,1
39348,79220968,21,0,1
39349,79222969,26,0,1
39350,79224968,25,1,1
39351,79226968,19,1,1
39352,79228968,23,1,1
39353,79230968,21,0,1
39354,79232968,23,0,1
39355,79234968,20,0,1
39356,79236968,21,0,1
39357,79238968,20,0,1
39358,79240968,25,0,1
39359,79242968,23,0,1
39360,79244968,23,1,1
39361,79246968,24,1,1
39362,79248968,21,1,1
39363,79250968,22,0,1
39364,79252968,23,0,1
39365,79254968,23,0,1
39366,79256968,18,0,1
39367,79258968,25,0,1
39368,79260968,23,0,1
39369,79262969,27,0,1
39370,79264968,25,1,1
39371,79266968,21,1,1
39372,79268968,20,1,1
39373,79270968,19,0,1
39374,79272968,25,0,1
39375,79274968,23,0,1
39376,79276968,21,0,1
39377,79278968,20,0,1
39378,79280968,26,0,1
39379,79282968,27,0,1
39380,79284968,29,1,1
39381,79286968,21,1,1
39382,79288968,26,1,1
39383,79290968,24,0,1
39384,79292968,25,0,1
39385,79294968,27,0,1
39386,79296968,22,0,1
39387,79298968,25,0,1
39388,79300968,20,0,1
39389,79302969,27,0,1
39390,79304968,27,1,1
39391,79306968,19,1,1
39392,79308968,25,1,1
39393,79310968,19,0,1
39394,79312968,25,0,1
39395,79314968,20,0,1
39396,79316968,25,0,1
39397,79318968,33,0,1
39398,79320968,21,0,1
39399,79322968,29,0,1
39400,79324968,325,1,1
39401,79326968,18,1,1
39402,79328968,35,1,1
39403,79330968,23,0,1
39404,79332968,24,0,1
39405,79334968,25,0,1
39406,79336968,12,0,1
39407,79338968,37,0,1
39408,79340968,28,0,1
39409,79342969,30,0,1
39410,79344968,27,1,1
39411,79346968,25,1,1
39412,79348968,31,1,1
39413,79350968,19,0,1
39414,79352968,26,0,1
39415,79354968,26,0,1
39416,79356968,16,0,1
39417,79358968,35,0,1
39418,79360968,23,0,1
39419,79362968,29,0,1
39420,79364968,20,1,1
39421,79366968,17,1,1
39422,79368968,27,1,1
39423,79370968,26,0,1
39424,79372968,29,0,1
39425,79374968,23,0,1
39426,79376968,16,0,1
39427,79378968,29,0,1
39428,79380968,26,0,1
39429,79382969,31,0,1
39430,79384968,28,1,1
39431,79386968,20,1,1
39432,79388968,39,1,1
39433,79390968,20,0,1
39434,79392968,20,0,1
39435,79394968,24,0,1
39436,79396968,23,0,1
39437,79398968,35,0,1
39438,79400968,23,0,1
39439,79402968,27,0,1
39440,79404968,20,1,1
39441,79406968,28,1,1
39442,79408968,31,1,1
39443,79410968,21,0,1
39444,79412968,25,0,1
39445,79414968,23,0,1
39446,79416968,17,0,1
39447,79418968,35,0,1
39448,79420968,17,0,1
39449,79422969,29,0,1
39450,79424968,25,1,1
39451,79426968,19,1,1
39452,79428968,43,1,1
39453,79430968,25,0,1
39454,79432968,24,0,1
39455,79434968,20,0,1
39456,79436968,24,0,1
39457,79438968,39,0,1
39458,79440968,21,0,1
39459,79442968,29,0,1
39460,79444968,167,1,1
39461,79446968,26,1,1
39462,79448968,43,1,1
39463,79450968,19,0,1
39464,79452968,22,0,1
39465,79454968,19,0,1
39466,79456968,21,0,1
39467,79458968,31,0,1
39468,79460968,26,0,1
39469,79462969,33,0,1
39470,79464968,23,1,1
39471,79466968,20,1,1
39472,79468968,31,1,1
39473,79470968,20,0,1
39474,79472968,23,0,1
39475,79474968,29,0,1
39476,79476968,20,0,1
39477,79478968,27,0,1
39478,79480968,21,0,1
39479,79482968,26,0,1
39480,79484968,120,1,1
39481,79486968,21,1,1
39482,79488968,37,1,1
39483,79490968,25,0,1
39484,79492968,23,0,1
39485,79494968,23,0,1
39486,79496968,23,0,1
39487,79498968,39,0,1
39488,79500968,23,0,1
39489,79502969,45,0,1
39490,79504968,127,1,1
39491,79506968,22,1,1
39492,79508968,37,1,1
39493,79510968,26,0,1
39494,79512968,25,0,1
39495,79514968,9,0,1
39496,79516968,19,0,1
39497,79518968,25,0,1
39498,79520968,21,0,1
39499,79522968,134,0,1
39500,79524968,614,1,1
39501,79526968,25,1,1
39502,79528968,26,1,1
39503,79530968,21,0,1
39504,79532968,31,0,1
39505,79534968,19,0,1
39506,79536968,23,0,1
39507,79538968,19,0,1
39508,79540968,23,0,1
39509,79542969,28,0,1
39510,79544968,47,1,1
39511,79546968,22,1,1
39512,79548968,22,1,1
39513,79550968,22,0,1
39514,79552968,28,0,1
39515,79554968,20,0,1
39516,79556968,25,0,1
39517,79558968,24,0,1
39518,79560968,25,0,1
39519,79562968,29,0,1
39520,79564968,315,1,1
39521,79566968,23,1,1
39522,79568968,24,1,1
39523,79570968,27,0,1
39524,79572968,33,0,1
39525,79574968,27,0,1
39526,79576968,22,0,1
39527,79578968,36,0,1
39528,79580968,27,0,1
39529,79582969,35,0,1
39530,79584968,372,1,1
39531,79586968,27,1,1
39532,79588968,31,1,1
39533,79590968,24,0,1
39534,79592968,27,0,1
39535,79594968,25,0,1
39536,79596968,25,0,1
39537,79598968,26,0,1
39538,79600968,23,0,1
39539,79602968,29,0,1
39540,79604968,93,1,1
39541,79606968,20,1,1
39542,79608968,27,1,1
39543,79610968,25,0,1
39544,79612968,31,0,1
39545,79614968,23,0,1
39546,79616968,27,0,1
39547,79618968,20,0,1
39548,79620968,27,0,1
39549,79622969,31,0,1
39550,79624968,292,1,1
39551,79626968,23,1,1
39552,79628968,28,1,1
39553,79630968,28,0,1
39554,79632968,29,0,1
39555,79634968,25,0,1
39556,79636968,20,0,1
39557,79638968,20,0,1
39558,79640968,25,0,1
39559,79642968,31,0,1
39560,79644968,302,1,1
39561,79646968,23,1,1
39562,79648968,27,1,1
39563,79650968,27,0,1
39564,79652968,33,0,1
39565,79654968,24,0,1
39566,79656968,27,0,1
39567,79658968,37,0,1
39568,79660968,29,0,1
39569,79662969,33,0,1
39570,79664968,26,1,1
39571,79666968,25,1,1
39572,79668968,27,1,1
39573,79670968,23,0,1
39574,79672968,25,0,1
39575,79674968,23,0,1
39576,79676968,24,0,1
39577,79678968,24,0,1
39578,79680968,25,0,1
39579,79682968,29,0,1
39580,79684968,25,1,1
39581,79686968,23,1,1
39582,79688968,30,1,1
39583,79690968,31,0,1
39584,79692968,27,0,1
39585,79694968,27,0,1
39586,79696968,23,0,1
39587,79698968,25,0,1
39588,79700968,25,0,1
39589,79702969,39,0,1
39590,79704968,28,1,1
39591,79706968,30,1,1
39592,79708968,29,1,1
39593,79710968,30,0,1
39594,79712968,37,0,1
39595,79714968,25,0,1
39596,79716968,24,0,1
39597,79718968,31,0,1
39598,79720968,27,0,1
39599,79722968,36,0,1
39600,79724968,29,1,1
39601,79726968,28,1,1
39602,79728968,37,1,1
39603,79730968,29,0,1
39604,79732968,30,0,1
39605,79734968,28,0,1
39606,79736968,28,0,1
39607,79738968,37,0,1
39608,79740968,33,0,1
39609,79742969,40,0,1
39610,79744968,93,1,1
39611,79746968,37,1,1
39612,79748968,27,1,1
39613,79750968,29,0,1
39614,79752968,39,0,1
39615,79754968,25,0,1
39616,79756968,41,0,1
39617,79758968,35,0,1
39618,79760968,27,0,1
39619,79762968,37,0,1
39620,79764968,137,1,1
39621,79766968,43,1,1
39622,79768968,39,1,1
39623,79770968,33,0,1
39624,79772968,39,0,1
39625,79774968,31,0,1
39626,79776968,39,0,1
39627,79778968,28,0,1
39628,79780968,29,0,1
39629,79782969,121,0,1
39630,79784968,459,1,1
39631,79786968,40,1,1
39632,79788968,29,1,1
39633,79790968,35,0,1
39634,79792968,37,0,1
39635,79794968,27,0,1
39636,79796968,39,0,1
39637,79798968,26,0,1
39638,79800968,27,0,1
39639,79802968,79,0,1
39640,79804968,377,1,1
39641,79806968,41,1,1
39642,79808968,38,1,1
39643,79810968,27,0,1
39644,79812968,30,0,1
39645,79814968,31,0,1
39646,79816968,37,0,1
39647,79818968,29,0,1
39648,79820968,29,0,1
39649,79822969,37,0,1
39650,79824968,25,1,1
39651,79826968,40,1,1
39652,79828968,29,1,1
39653,79830968,29,0,1
39654,79832968,31,0,1
39655,79834968,37,0,1
39656,79836968,39,0,1
39657,79838968,37,0,1
39658,79840968,39,0,1
39659,79842968,41,0,1
39660,79844968,93,1,1
39661,79846968,42,1,1
39662,79848968,28,1,1
39663,79850968,29,0,1
39664,79852968,37,0,1
39665,79854968,25,0,1
39666,79856968,41,0,1
39667,79858968,36,0,1
39668,79860968,29,0,1
39669,79862969,41,0,1
39670,79864968,133,1,1
39671,79866968,45,1,1
39672,79868968,31,1,1
39673,79870968,28,0,1
39674,79872968,37,0,1
39675,79874968,28,0,1
39676,79876968,37,0,1
39677,79878968,25,0,1
39678,79880968,35,0,1
39679,79882968,29,0,1
39680,79884968,31,1,1
39681,79886968,39,1,1
39682,79888968,30,1,1
39683,79890968,29,0,1
39684,79892968,33,0,1
39685,79894968,29,0,1
39686,79896968,39,0,1
39687,79898968,27,0,1
39688,79900968,28,0,1
39689,79902969,31,0,1
39690,79904968,31,1,1
39691,79906968,43,1,1
39692,79908968,30,1,1
39693,79910968,30,0,1
39694,79912968,36,0,1
39695,79914968,31,0,1
39696,79916968,39,0,1
39697,79918968,26,0,1
39698,79920968,25,0,1
39699,79922968,38,0,1
39700,79924968,31,1,1
39701,79926968,31,1,1
39702,79928968,37,1,1
39703,79930968,36,0,1
39704,79932968,39,0,1
39705,79934968,28,0,1
39706,79936968,27,0,1
39707,79938968,37,0,1
39708,79940968,35,0,1
39709,79942969,43,0,1
39710,79944968,31,1,1
39711,79946968,29,1,1
39712,79948968,37,1,1
39713,79950968,27,0,1
39714,79952968,38,0,1
39715,79954968,29,0,1
39716,79956968,23,0,1
39717,79958968,31,0,1
39718,79960968,36,0,1
39719,79962968,34,0,1
39720,79964968,31,1,1
39721,79966968,24,1,1
39722,79968968,35,1,1
39723,79970968,29,0,1
39724,79972968,29,0,1
39725,79974968,23,0,1
39726,79976968,28,0,1
39727,79978968,27,0,1
39728,79980968,29,0,1
39729,79982969,38,0,1
39730,79984968,30,1,1
39731,79986968,25,1,1
39732,79988968,29,1,1
39733,79990968,31,0,1
39734,79992968,31,0,1
39735,79994968,23,0,1
39736,79996968,30,0,1
39737,79998968,29,0,1
39738,80000968,30,0,1
39739,80002968,37,0,1
39740,80004968,27,1,1
39741,80006968,39,1,1
39742,80008968,35,1,1
39743,80010968,29,0,1
39744,80012968,31,0,1
39745,80014968,22,0,1
39746,80016968,33,0,1
39747,80018968,27,0,1
39748,80020968,31,0,1
39749,80022969,35,0,1
39750,80024968,29,1,1
39751,80026968,30,1,1
39752,80028968,27,1,1
39753,80030968,29,0,1
39754,80032968,38,0,1
39755,80034968,25,0,1
39756,80036968,20,0,1
39757,80038968,27,0,1
39758,80040968,31,0,1
39759,80042968,29,0,1
39760,80044968,30,1,1
39761,80046968,26,1,1
39762,80048968,34,1,1
39763,80050968,26,0,1
39764,80052968,29,0,1
39765,80054968,23,0,1
39766,80056968,26,0,1
39767,80058968,33,0,1
39768,80060968,25,0,1
39769,80062969,38,0,1
39770,80064968,31,1,1
39771,80066968,27,1,1
39772,80068968,31,1,1
39773,80070968,29,0,1
39774,80072968,35,0,1
39775,80074968,29,0,1
39776,80076968,25,0,1
39777,80078968,25,0,1
39778,80080968,27,0,1
39779,80082968,31,0,1
39780,80084968,25,1,1
39781,80086968,26,1,1
39782,80088968,27,1,1
39783,80090968,31,0,1
39784,80092968,36,0,1
39785,80094968,25,0,1
39786,80096968,29,0,1
39787,80098968,27,0,1
39788,80100968,27,0,1
39789,80102969,37,0,1
39790,80104968,27,1,1
39791,80106968,27,1,1
39792,80108968,25,1,1
39793,80110968,29,0,1
39794,80112968,27,0,1
39795,80114968,23,0,1
39796,80116968,23,0,1
39797,80118968,36,0,1
39798,80120968,29,0,1
39799,80122968,35,0,1
39800,80124968,27,1,1
39801,80126968,29,1,1
39802,80128968,35,1,1
39803,80130968,31,0,1
39804,80132968,30,0,1
39805,80134968,25,0,1
39806,80136968,28,0,1
39807,80138968,35,0,1
39808,80140968,31,0,1
39809,80142968,33,0,1
39810,80144968,26,1,1
39811,80146968,30,1,1
39812,80148968,31,1,1
39813,80150968,25,0,1
39814,80152968,35,0,1
39815,80154968,21,0,1
39816,80156968,25,0,1
39817,80158968,30,0,1
39818,80160968,35,0,1
39819,80162968,41,0,1
39820,80164968,29,1,1
39821,80166968,27,1,1
39822,80168968,27,1,1
39823,80170968,37,0,1
39824,80172968,37,0,1
39825,80174968,27,0,1
39826,80176968,35,0,1
39827,80178968,36,0,1
39828,80180968,30,0,1
39829,80182968,39,0,1
39830,80184968,27,1,1
39831,80186968,25,1,1
39832,80188968,37,0,1
39833,80190968,26,0,1
39834,80192968,0,0,0
39835,80194968,29,0,1
39836,80196968,25,0,1
39837,80198968,31,0,1
39838,80200968,42,0,1
39839,80202968,39,0,1
39840,80204968,30,1,1
39841,80206968,27,1,1
39842,80208968,45,0,1
39843,80210968,23,0,1
39844,80212968,31,0,1
39845,80214968,24,0,1
39846,80216968,33,0,1
39847,80218968,29,0,1
39848,80220968,35,0,1
39849,80222968,28,0,1
39850,80224968,30,1,1
39851,80226968,31,1,1
39852,80228968,55,0,1
39853,80230968,26,0,1
39854,80232968,39,0,1
39855,80234968,21,0,1
39856,80236968,27,0,1
39857,80238968,21,0,1
39858,80240968,37,0,1
39859,80242968,34,0,1
39860,80244968,31,1,1
39861,80246968,37,1,1
39862,80248968,35,0,1
39863,80250968,24,0,1
39864,80252968,31,0,1
39865,80254968,29,0,1
39866,80256968,43,0,1
39867,80258968,27,0,1
39868,80260968,38,0,1
39869,80262968,30,0,1
39870,80264968,28,1,1
39871,80266968,41,1,1
39872,80268968,35,0,1
39873,80270968,31,0,1
39874,80272968,39,0,1
39875,80274968,24,0,1
39876,80276968,39,0,1
39877,80278968,29,0,1
39878,80280968,27,0,1
39879,80282968,147,0,1
39880,80284968,29,1,1
39881,80286968,38,1,1
39882,80288968,29,0,1
39883,80290968,30,0,1
39884,80292968,21,0,1
39885,80294968,22,0,1
39886,80296968,39,0,1
39887,80298968,30,0,1
39888,80300968,36,0,1
39889,80302968,37,0,1
39890,80304968,31,1,1
39891,80306968,31,1,1
39892,80308968,31,0,1
39893,80310968,29,0,1
39894,80312968,31,0,1
39895,80314968,27,0,1
39896,80316968,41,0,1
39897,80318968,33,0,1
39898,80320968,29,0,1
39899,80322968,149,0,1
39900,80324968,27,1,1
39901,80326968,41,1,1
39902,80328968,35,0,1
39903,80330968,27,0,1
39904,80332968,37,0,1
39905,80334968,23,0,1
39906,80336968,37,0,1
39907,80338968,26,0,1
39908,80340968,35,0,1
39909,80342968,36,0,1
39910,80344968,25,1,1
39911,80346968,40,1,1
39912,80348968,35,0,1
39913,80350968,25,0,1
39914,80352968,35,0,1
39915,80354968,24,0,1
39916,80356968,33,0,1
39917,80358968,25,0,1
39918,80360968,1,0,1
39919,80362968,35,0,1
39920,80364968,24,1,1
39921,80366968,31,1,1
39922,80368968,25,0,1
39923,80370968,31,0,1
39924,80372968,27,0,1
39925,80374968,28,0,1
39926,80376968,35,0,1
39927,80378968,22,0,1
39928,80380968,34,0,1
39929,80382968,31,0,1
39930,80384968,25,1,1
39931,80386968,43,1,1
39932,80388968,25,0,1
39933,80390968,25,0,1
39934,80392968,34,0,1
39935,80394968,23,0,1
39936,80396968,37,0,1
39937,80398968,27,0,1
39938,80400968,26,0,1
39939,80402968,29,0,1
39940,80404968,25,1,1
39941,80406968,39,1,1
39942,80408968,25,0,1
39943,80410968,31,0,1
39944,80412968,35,0,1
39945,80414968,25,0,1
39946,80416968,30,0,1
39947,80418968,30,0,1
39948,80420968,30,0,1
39949,80422968,29,0,1
39950,80424968,23,1,1
39951,80426968,42,1,1
39952,80428968,31,0,1
39953,80430968,27,0,1
39954,80432968,29,0,1
39955,80434968,27,0,1
39956,80436968,39,0,1
39957,80438968,25,0,1
39958,80440968,36,0,1
39959,80442968,37,0,1
39960,80444968,27,1,1
39961,80446968,30,1,1
39962,80448968,27,0,1
39963,80450968,29,0,1
39964,80452968,33,0,1
39965,80454968,31,0,1
39966,80456968,27,0,1
39967,80458968,27,0,1
39968,80460968,30,0,1
39969,80462968,37,0,1
39970,80464968,24,1,1
39971,80466968,28,1,1
39972,80468968,29,0,1
39973,80470968,26,0,1
39974,80472968,33,0,1
39975,80474968,26,0,1
