sample_index,timestamp_us,ecg_raw,leads_off,adc_ok
964,2452968,1976,0,1
965,2454968,2005,0,1
966,2456968,2019,0,1
967,2458968,2029,0,1
968,2460968,2028,0,1
969,2462968,1975,1,1
970,2464968,1952,0,1
971,2466968,1917,0,1
972,2468968,1929,0,1
973,2470968,1948,0,1
974,2472969,1977,0,1
975,2474968,2005,0,1
976,2476968,2020,0,1
977,2478968,2021,0,1
978,2480968,2029,0,1
979,2482968,1999,1,1
980,2484968,1961,0,1
981,2486968,1943,0,1
982,2488968,1949,0,1
983,2490968,1963,0,1
984,2492968,1983,0,1
985,2494968,2004,0,1
986,2496968,2013,0,1
987,2498968,2024,0,1
988,2500968,2013,0,1
989,2502968,1979,1,1
990,2504968,1964,0,1
991,2506968,1961,0,1
992,2508968,1971,0,1
993,2510968,1976,0,1
994,2512969,1995,0,1
995,2514968,2008,0,1
996,2516968,2015,0,1
997,2518968,2018,0,1
998,2520968,2023,0,1
999,2522968,1994,1,1
1000,2524968,1959,0,1
1001,2526968,1946,0,1
1002,2528968,1958,0,1
1003,2530968,1965,0,1
1004,2532968,1993,0,1
1005,2534968,1998,0,1
1006,2536968,2019,0,1
1007,2538968,2014,0,1
1008,2540968,2015,0,1
1009,2542968,1997,1,1
1010,2544968,1965,0,1
1011,2546968,1929,0,1
1012,2548968,1927,0,1
1013,2550968,1963,0,1
1014,2552969,1989,0,1
1015,2554968,1999,0,1
1016,2556968,2022,0,1
1017,2558968,2025,0,1
1018,2560968,2023,0,1
1019,2562968,1978,1,1
1020,2564968,1947,0,1
1021,2566968,1933,0,1
1022,2568968,1949,0,1
1023,2570968,1967,0,1
1024,2572968,1992,0,1
1025,2574968,2009,0,1
1026,2576968,2023,0,1
1027,2578968,2013,0,1
1028,2580968,2026,0,1
1029,2582968,1973,1,1
1030,2584968,1938,0,1
1031,2586968,1919,0,1
1032,2588968,1928,0,1
1033,2590968,1951,0,1
1034,2592969,1981,0,1
1035,2594968,2009,0,1
1036,2596968,2025,0,1
1037,2598968,2026,0,1
1038,2600968,2031,0,1
1039,2602968,2001,1,1
1040,2604968,1981,0,1
1041,2606968,1973,0,1
1042,2608968,1973,0,1
1043,2610968,1979,0,1
1044,2612968,2005,0,1
1045,2614968,2008,0,1
1046,2616968,2009,0,1
1047,2618968,2013,0,1
1048,2620968,2005,0,1
1049,2622968,1977,1,1
1050,2624968,1951,0,1
1051,2626968,1939,0,1
1052,2628968,1942,0,1
1053,2630968,1973,0,1
1054,2632969,1991,0,1
1055,2634968,2004,0,1
1056,2636968,2019,0,1
1057,2638968,2021,0,1
1058,2640968,2025,0,1
1059,2642968,1975,1,1
1060,2644968,1945,0,1
1061,2646968,1939,0,1
1062,2648968,1945,0,1
1063,2650968,1979,0,1
1064,2652968,1984,0,1
1065,2654968,2011,0,1
1066,2656968,2013,0,1
1067,2658968,2024,0,1
1068,2660968,2015,1,1
1069,2662968,1971,1,1
1070,2664968,1948,0,1
1071,2666968,1946,0,1
1072,2668968,1959,0,1
1073,2670968,1973,0,1
1074,2672969,1987,0,1
1075,2674968,2007,0,1
1076,2676968,2011,0,1
1077,2678968,2015,0,1
1078,2680968,2008,1,1
1079,2682968,1979,1,1
1080,2684968,1957,0,1
1081,2686968,1949,0,1
1082,2688968,1965,0,1
1083,2690968,1967,0,1
1084,2692968,1991,0,1
1085,2694968,2007,0,1
1086,2696968,2018,0,1
1087,2698968,2035,0,1
1088,2700968,2023,1,1
1089,2702968,1967,1,1
1090,2704968,1941,0,1
1091,2706968,1925,0,1
1092,2708968,1956,0,1
1093,2710968,1963,0,1
1094,2712969,1997,0,1
1095,2714968,2007,0,1
1096,2716968,2023,0,1
1097,2718968,2036,0,1
1098,2720968,2023,1,1
1099,2722968,1976,1,1
1100,2724968,1931,0,1
1101,2726968,1933,0,1
1102,2728968,1949,0,1
1103,2730968,1959,0,1
1104,2732968,1987,0,1
1105,2734968,2007,0,1
1106,2736968,2023,0,1
1107,2738968,2031,0,1
1108,2740968,2019,1,1
1109,2742968,1965,1,1
1110,2744968,1951,0,1
1111,2746968,1947,0,1
1112,2748968,1967,0,1
1113,2750968,1972,0,1
1114,2752969,1993,0,1
1115,2754968,2009,0,1
1116,2756968,2019,0,1
1117,2758968,2029,0,1
1118,2760968,2023,1,1
1119,2762968,1975,1,1
1120,2764968,1933,0,1
1121,2766968,1927,0,1
1122,2768968,1957,0,1
1123,2770968,1965,0,1
1124,2772968,1991,0,1
1125,2774968,2015,0,1
1126,2776968,2029,0,1
1127,2778968,2039,0,1
1128,2780968,2020,1,1
1129,2782968,1967,1,1
1130,2784968,1929,0,1
1131,2786968,1927,0,1
1132,2788968,1949,0,1
1133,2790968,1976,0,1
1134,2792969,1995,0,1
1135,2794968,2013,0,1
1136,2796968,2035,0,1
1137,2798968,2032,0,1
1138,2800968,2019,1,1
1139,2802968,1975,1,1
1140,2804968,1948,0,1
1141,2806968,1949,0,1
1142,2808968,1964,0,1
1143,2810968,1977,0,1
1144,2812968,1993,0,1
1145,2814968,2007,0,1
1146,2816968,2021,0,1
1147,2818968,2037,0,1
1148,2820968,2020,1,1
1149,2822968,1995,1,1
1150,2824968,1973,0,1
1151,2826968,1972,0,1
1152,2828968,1998,0,1
1153,2830968,1981,0,1
1154,2832969,1999,0,1
1155,2834968,2007,0,1
1156,2836968,2013,0,1
1157,2838968,2025,0,1
1158,2840968,2012,1,1
1159,2842968,1989,1,1
1160,2844968,1967,0,1
1161,2846968,1961,0,1
1162,2848968,1989,0,1
1163,2850968,1989,0,1
1164,2852968,1995,0,1
1165,2854968,2005,0,1
1166,2856968,2021,0,1
1167,2858968,2026,0,1
1168,2860968,2019,1,1
1169,2862968,1961,1,1
1170,2864968,1949,0,1
1171,2866968,1941,0,1
1172,2868968,1967,0,1
1173,2870968,1975,0,1
1174,2872969,2006,0,1
1175,2874968,2014,0,1
1176,2876968,2025,0,1
1177,2878968,2037,0,1
1178,2880968,2005,1,1
1179,2882968,1995,1,1
1180,2884968,1959,0,1
1181,2886968,1956,0,1
1182,2888968,1975,0,1
1183,2890968,1979,0,1
1184,2892968,1997,0,1
1185,2894968,2013,0,1
1186,2896968,2027,0,1
1187,2898968,2022,0,1
1188,2900968,1983,1,1
1189,2902968,1946,1,1
1190,2904968,1929,0,1
1191,2906968,1931,0,1
1192,2908968,1955,0,1
1193,2910968,1976,0,1
1194,2912969,2005,0,1
1195,2914968,2021,0,1
1196,2916968,2023,0,1
1197,2918968,2021,0,1
1198,2920968,2006,1,1
1199,2922968,1989,0,1
1200,2924968,1957,0,1
1201,2926968,1952,0,1
1202,2928968,1956,0,1
1203,2930968,1976,0,1
1204,2932968,1995,0,1
1205,2934968,2011,0,1
1206,2936968,2013,0,1
1207,2938968,2011,0,1
1208,2940968,1998,1,1
1209,2942968,1965,1,1
1210,2944968,1928,0,1
1211,2946968,1919,0,1
1212,2948968,1938,0,1
1213,2950968,1964,0,1
1214,2952969,1997,0,1
1215,2954968,2009,0,1
1216,2956968,2029,0,1
1217,2958968,2028,0,1
1218,2960968,2026,1,1
1219,2962968,2080,0,1
1220,2964968,2159,0,1
1221,2966968,2172,0,1
1222,2968968,2139,0,1
1223,2970968,2087,0,1
1224,2972968,2035,0,1
1225,2974968,1995,0,1
1226,2976968,1974,0,1
1227,2978968,1977,0,1
1228,2980968,1943,1,1
1229,2982968,1851,0,1
1230,2984968,1765,0,1
1231,2986968,1764,0,1
1232,2988968,1830,0,1
1233,2990968,1903,0,1
1234,2992969,1975,0,1
1235,2994968,2025,0,1
1236,2996968,2067,0,1
1237,2998968,2072,0,1
1238,3000968,2037,1,1
1239,3002968,1967,0,1
1240,3004968,1927,0,1
1241,3006968,1915,0,1
1242,3008968,1928,0,1
1243,3010968,1957,0,1
1244,3012968,1977,0,1
1245,3014968,2011,0,1
1246,3016968,2023,0,1
1247,3018968,2025,0,1
1248,3020968,1997,1,1
1249,3022968,1965,0,1
1250,3024968,1951,0,1
1251,3026968,1959,0,1
1252,3028968,1965,0,1
1253,3030968,1989,0,1
1254,3032969,2009,0,1
1255,3034968,2009,0,1
1256,3036968,2019,0,1
1257,3038968,2024,0,1
1258,3040968,1983,1,1
1259,3042968,1968,0,1
1260,3044968,1961,0,1
1261,3046968,1961,0,1
1262,3048968,1977,0,1
1263,3050968,1995,0,1
1264,3052968,2005,0,1
1265,3054968,2005,0,1
1266,3056968,2025,0,1
1267,3058968,2020,0,1
1268,3060968,1981,1,1
1269,3062968,1972,0,1
1270,3064968,1952,0,1
1271,3066968,1955,0,1
1272,3068968,1971,0,1
1273,3070968,1979,0,1
1274,3072969,2009,0,1
1275,3074968,2011,0,1
1276,3076968,2021,0,1
1277,3078968,2012,0,1
1278,3080968,1998,1,1
1279,3082968,1960,0,1
1280,3084968,1946,0,1
1281,3086968,1960,0,1
1282,3088968,1975,0,1
1283,3090968,1983,0,1
1284,3092968,2004,0,1
1285,3094968,2022,0,1
1286,3096968,2020,0,1
1287,3098968,2013,0,1
1288,3100968,1977,1,1
1289,3102968,1960,0,1
1290,3104968,1943,0,1
1291,3106968,1952,0,1
1292,3108968,1976,0,1
1293,3110968,1991,0,1
1294,3112969,2012,0,1
1295,3114968,2020,0,1
1296,3116968,2023,0,1
1297,3118968,2019,0,1
1298,3120968,1971,1,1
1299,3122968,1939,0,1
1300,3124968,1915,0,1
1301,3126968,1927,0,1
1302,3128968,1955,0,1
1303,3130968,1981,0,1
1304,3132968,2005,0,1
1305,3134968,2020,0,1
1306,3136968,2027,0,1
1307,3138968,2031,0,1
1308,3140968,1989,1,1
1309,3142968,1958,0,1
1310,3144968,1935,0,1
1311,3146968,1951,0,1
1312,3148968,1963,0,1
1313,3150968,1977,0,1
1314,3152969,2008,0,1
1315,3154968,2021,0,1
1316,3156968,2029,0,1
1317,3158968,2019,0,1
1318,3160968,1979,1,1
1319,3162968,1972,0,1
1320,3164968,1967,0,1
1321,3166968,1975,0,1
1322,3168968,1981,0,1
1323,3170968,1997,0,1
1324,3172968,2005,0,1
1325,3174968,2014,0,1
1326,3176968,2023,0,1
1327,3178968,2022,0,1
1328,3180968,1997,1,1
1329,3182968,1983,0,1
1330,3184968,1960,0,1
1331,3186968,1979,0,1
1332,3188968,1981,0,1
1333,3190968,2004,0,1
1334,3192969,2006,0,1
1335,3194968,2023,0,1
1336,3196968,2025,0,1
1337,3198968,2014,0,1
1338,3200968,2009,1,1
1339,3202968,2023,0,1
1340,3204968,2023,0,1
1341,3206968,2025,0,1
1342,3208968,2009,0,1
1343,3210968,2008,0,1
1344,3212968,1999,0,1
1345,3214968,2003,0,1
1346,3216968,2013,0,1
1347,3218968,2007,0,1
1348,3220968,1956,1,1
1349,3222968,1945,0,1
1350,3224968,1938,0,1
1351,3226968,1971,0,1
1352,3228968,1972,0,1
1353,3230968,1988,0,1
1354,3232969,2010,0,1
1355,3234968,2023,0,1
1356,3236968,2040,0,1
1357,3238968,2022,1,1
1358,3240968,2034,1,1
1359,3242968,2076,0,1
1360,3244968,2079,0,1
1361,3246968,2073,0,1
1362,3248968,2041,0,1
1363,3250968,2017,0,1
1364,3252968,1997,0,1
1365,3254968,1995,0,1
1366,3256968,2003,0,1
1367,3258968,1999,1,1
1368,3260968,1957,1,1
1369,3262968,1959,0,1
1370,3264968,1958,0,1
1371,3266968,1979,0,1
1372,3268968,1993,0,1
1373,3270968,1997,0,1
1374,3272969,2019,0,1
1375,3274968,2019,0,1
1376,3276968,2030,0,1
1377,3278968,2015,1,1
1378,3280968,1963,1,1
1379,3282968,1955,0,1
1380,3284968,1929,0,1
1381,3286968,1957,0,1
1382,3288968,1967,0,1
1383,3290968,1988,0,1
1384,3292968,2009,0,1
1385,3294968,2014,0,1
1386,3296968,2037,0,1
1387,3298968,2015,1,1
1388,3300968,2073,1,1
1389,3302968,2204,0,1
1390,3304968,2248,0,1
1391,3306968,2224,0,1
1392,3308968,2133,0,1
1393,3310968,2059,0,1
1394,3312969,1992,0,1
1395,3314968,1963,0,1
1396,3316968,1964,0,1
1397,3318968,1951,1,1
1398,3320968,1939,1,1
1399,3322968,1935,0,1
1400,3324968,1944,0,1
1401,3326968,1966,0,1
1402,3328968,1992,0,1
1403,3330968,1996,0,1
1404,3332968,2014,0,1
1405,3334968,2012,0,1
1406,3336968,2031,0,1
1407,3338968,2003,1,1
1408,3340968,1971,1,1
1409,3342968,1944,0,1
1410,3344968,1943,0,1
1411,3346968,1959,0,1
1412,3348968,1972,0,1
1413,3350968,1991,0,1
1414,3352969,2015,0,1
1415,3354968,2024,0,1
1416,3356968,2029,0,1
1417,3358968,2012,1,1
1418,3360968,1995,1,1
1419,3362968,1973,0,1
1420,3364968,1973,0,1
1421,3366968,1981,0,1
1422,3368968,1995,0,1
1423,3370968,1995,0,1
1424,3372968,2006,0,1
1425,3374968,2019,0,1
1426,3376968,2011,0,1
1427,3378968,2005,1,1
1428,3380968,1991,1,1
1429,3382968,1963,0,1
1430,3384968,1966,0,1
1431,3386968,1964,0,1
1432,3388968,1980,0,1
1433,3390968,1996,0,1
1434,3392969,2019,0,1
1435,3394968,2015,0,1
1436,3396968,2015,0,1
1437,3398968,1995,1,1
1438,3400968,1983,1,1
1439,3402968,1957,0,1
1440,3404968,1943,0,1
1441,3406968,1961,0,1
1442,3408968,1973,0,1
1443,3410968,1991,0,1
1444,3412968,2015,0,1
1445,3414968,2015,0,1
1446,3416968,2019,0,1
1447,3418968,2009,1,1
1448,3420968,1967,1,1
1449,3422968,1940,0,1
1450,3424968,1927,0,1
1451,3426968,1943,0,1
1452,3428968,1971,0,1
1453,3430968,1993,0,1
1454,3432969,2012,0,1
1455,3434968,2026,0,1
1456,3436968,2025,0,1
1457,3438968,2007,1,1
1458,3440968,1959,1,1
1459,3442968,1915,0,1
1460,3444968,1927,0,1
1461,3446968,1948,0,1
1462,3448968,1971,0,1
1463,3450968,1999,0,1
1464,3452968,2013,0,1
1465,3454968,2028,0,1
1466,3456968,2031,0,1
1467,3458968,2008,1,1
1468,3460968,1977,1,1
1469,3462968,1959,0,1
1470,3464968,1957,0,1
1471,3466968,1963,0,1
1472,3468968,1980,0,1
1473,3470968,1993,0,1
1474,3472969,2019,0,1
1475,3474968,2021,0,1
1476,3476968,2015,0,1
1477,3478968,1997,1,1
1478,3480968,1966,1,1
1479,3482968,1941,0,1
1480,3484968,1930,0,1
1481,3486968,1945,0,1
1482,3488968,1971,0,1
1483,3490968,1994,0,1
1484,3492968,2020,0,1
1485,3494968,2025,0,1
1486,3496968,2021,0,1
1487,3498968,2007,1,1
1488,3500968,1976,1,1
1489,3502968,1955,0,1
1490,3504968,1950,0,1
1491,3506968,1965,0,1
1492,3508968,1983,0,1
1493,3510968,1989,0,1
1494,3512969,2011,0,1
1495,3514968,2023,0,1
1496,3516968,2024,0,1
1497,3518968,1995,1,1
1498,3520968,1968,0,1
1499,3522968,1935,0,1
1500,3524968,1941,0,1
1501,3526968,1959,0,1
1502,3528968,1977,0,1
1503,3530968,1989,0,1
1504,3532968,2013,0,1
1505,3534968,2023,0,1
1506,3536968,2015,0,1
1507,3538968,1983,1,1
1508,3540968,1967,0,1
1509,3542968,1945,0,1
1510,3544968,1941,0,1
1511,3546968,1956,0,1
1512,3548968,1983,0,1
1513,3550968,2004,0,1
1514,3552968,2015,0,1
1515,3554968,2014,0,1
1516,3556968,2025,0,1
1517,3558968,2007,1,1
1518,3560968,1967,0,1
1519,3562968,1955,0,1
1520,3564968,1949,0,1
1521,3566968,1957,0,1
1522,3568968,1977,0,1
1523,3570968,1994,0,1
1524,3572968,2008,0,1
1525,3574968,2021,0,1
1526,3576968,2023,0,1
1527,3578968,2003,1,1
1528,3580968,1971,0,1
1529,3582968,1947,0,1
1530,3584968,1951,0,1
1531,3586968,1961,0,1
1532,3588968,1977,0,1
1533,3590968,1997,0,1
1534,3592968,2019,0,1
1535,3594968,2020,0,1
1536,3596968,2023,0,1
1537,3598968,2003,1,1
1538,3600968,1960,0,1
1539,3602968,1939,0,1
1540,3604968,1947,0,1
1541,3606968,1963,0,1
1542,3608968,1983,0,1
1543,3610968,1999,0,1
1544,3612968,2012,0,1
1545,3614968,2020,0,1
1546,3616968,2023,0,1
1547,3618968,1991,1,1
1548,3620968,1971,0,1
1549,3622968,1943,0,1
1550,3624968,1932,0,1
1551,3626968,1947,0,1
1552,3628968,1977,0,1
1553,3630968,2003,0,1
1554,3632968,2023,0,1
1555,3634968,2037,0,1
1556,3636968,2035,0,1
1557,3638968,2012,1,1
1558,3640968,2131,0,1
1559,3642968,2229,0,1
1560,3644968,2233,0,1
1561,3646968,2188,0,1
1562,3648968,2095,0,1
1563,3650968,2023,0,1
1564,3652968,1971,0,1
1565,3654968,1949,0,1
1566,3656968,1945,0,1
1567,3658968,1925,1,1
1568,3660968,1823,0,1
1569,3662968,1766,0,1
1570,3664968,1785,0,1
1571,3666968,1855,0,1
1572,3668968,1931,0,1
1573,3670968,1993,0,1
1574,3672968,2043,0,1
1575,3674968,2059,0,1
1576,3676968,2057,0,1
1577,3678968,2019,1,1
1578,3680968,1961,0,1
1579,3682968,1928,0,1
1580,3684968,1948,0,1
1581,3686968,1944,0,1
1582,3688968,1967,0,1
1583,3690968,1998,0,1
1584,3692968,2023,0,1
1585,3694968,2015,0,1
1586,3696968,2031,0,1
1587,3698968,2015,1,1
1588,3700968,1928,0,1
1589,3702968,1816,0,1
1590,3704968,1788,0,1
1591,3706968,1831,0,1
1592,3708968,1895,0,1
1593,3710968,1963,0,1
1594,3712968,2025,0,1
1595,3714968,2054,0,1
1596,3716968,2069,0,1
1597,3718968,2057,1,1
1598,3720968,2006,0,1
1599,3722968,1974,0,1
1600,3724968,1963,0,1
1601,3726968,1984,0,1
1602,3728968,1975,0,1
1603,3730968,1988,0,1
1604,3732968,2005,0,1
1605,3734968,2020,0,1
1606,3736968,2025,0,1
1607,3738968,2019,1,1
1608,3740968,2003,0,1
1609,3742968,1988,0,1
1610,3744968,1974,0,1
1611,3746968,1991,0,1
1612,3748968,1983,0,1
1613,3750968,1999,0,1
1614,3752968,2011,0,1
1615,3754968,2013,0,1
1616,3756968,2025,0,1
1617,3758968,2007,1,1
1618,3760968,1975,0,1
1619,3762968,1939,0,1
1620,3764968,1955,0,1
1621,3766968,1979,0,1
1622,3768968,1981,0,1
1623,3770968,1999,0,1
1624,3772968,2010,0,1
1625,3774968,2027,0,1
1626,3776968,2027,0,1
1627,3778968,2004,1,1
1628,3780968,1977,0,1
1629,3782968,1959,0,1
1630,3784968,1960,0,1
1631,3786968,1974,0,1
1632,3788968,1980,0,1
1633,3790968,1996,0,1
1634,3792968,2012,0,1
1635,3794968,2009,0,1
1636,3796968,2030,0,1
1637,3798968,1967,1,1
1638,3800968,1928,0,1
1639,3802968,1909,0,1
1640,3804968,1919,0,1
1641,3806968,1963,0,1
1642,3808968,1973,0,1
1643,3810968,1998,0,1
1644,3812968,2031,0,1
1645,3814968,2027,0,1
1646,3816968,2041,0,1
1647,3818968,1966,1,1
1648,3820968,1926,0,1
1649,3822968,1930,0,1
1650,3824968,1933,0,1
1651,3826968,1975,0,1
1652,3828968,1983,0,1
1653,3830968,2005,0,1
1654,3832968,2029,0,1
1655,3834968,2019,0,1
1656,3836968,2036,0,1
1657,3838968,1972,1,1
1658,3840968,1957,0,1
1659,3842968,1955,0,1
1660,3844968,1960,0,1
1661,3846968,1994,0,1
1662,3848968,1993,0,1
1663,3850968,2008,0,1
1664,3852968,2015,0,1
1665,3854968,2021,0,1
1666,3856968,2028,1,1
1667,3858968,1893,1,1
1668,3860968,1933,0,1
1669,3862968,1932,0,1
1670,3864968,1940,0,1
1671,3866968,1989,0,1
1672,3868968,1989,0,1
1673,3870968,2006,0,1
1674,3872968,2027,0,1
1675,3874968,2026,0,1
1676,3876968,2039,1,1
1677,3878968,2022,1,1
1678,3880968,2039,0,1
1679,3882968,2040,0,1
1680,3884968,2025,0,1
1681,3886968,2025,0,1
1682,3888968,2005,0,1
1683,3890968,1997,0,1
1684,3892968,1999,0,1
1685,3894968,1999,0,1
1686,3896968,2010,1,1
1687,3898968,1945,1,1
1688,3900968,1927,0,1
1689,3902968,1926,0,1
1690,3904968,1944,0,1
1691,3906968,1975,0,1
1692,3908968,1996,0,1
1693,3910968,2009,0,1
1694,3912968,2029,0,1
1695,3914968,2026,0,1
1696,3916968,2025,1,1
1697,3918968,1971,1,1
1698,3920968,1933,0,1
1699,3922968,1933,0,1
1700,3924968,1939,0,1
1701,3926968,1965,0,1
1702,3928968,1977,0,1
1703,3930968,2013,0,1
1704,3932968,2020,0,1
1705,3934968,2025,0,1
1706,3936968,2019,1,1
1707,3938968,1975,1,1
1708,3940968,1962,0,1
1709,3942968,1945,0,1
1710,3944968,1956,0,1
1711,3946968,1967,0,1
1712,3948968,1991,0,1
1713,3950968,2007,0,1
1714,3952968,2009,0,1
1715,3954968,2018,0,1
1716,3956968,2007,1,1
1717,3958968,1973,1,1
1718,3960968,1937,0,1
1719,3962968,1931,0,1
1720,3964968,1943,0,1
1721,3966968,1965,0,1
1722,3968968,1988,0,1
1723,3970968,2010,0,1
1724,3972968,2032,0,1
1725,3974968,2021,0,1
1726,3976968,2019,1,1
1727,3978968,1951,1,1
1728,3980968,1909,0,1
1729,3982968,1911,0,1
1730,3984968,1930,0,1
1731,3986968,1971,0,1
1732,3988968,1989,0,1
1733,3990968,2013,0,1
1734,3992968,2028,0,1
1735,3994968,2025,0,1
1736,3996968,2023,1,1
1737,3998968,1967,1,1
1738,4000968,1944,0,1
1739,4002968,1941,0,1
1740,4004968,1955,0,1
1741,4006968,1976,0,1
1742,4008968,1977,0,1
1743,4010968,2009,0,1
1744,4012968,2020,0,1
1745,4014968,2025,0,1
1746,4016968,2015,1,1
1747,4018968,1993,1,1
1748,4020968,1951,0,1
1749,4022968,1955,0,1
1750,4024968,1961,0,1
1751,4026968,1964,0,1
1752,4028968,1995,0,1
1753,4030968,2009,0,1
1754,4032968,2009,0,1
1755,4034968,2025,0,1
1756,4036968,2003,1,1
1757,4038968,1981,1,1
1758,4040968,1947,0,1
1759,4042968,1945,0,1
1760,4044968,1947,0,1
1761,4046968,1963,0,1
1762,4048968,1995,0,1
1763,4050968,2009,0,1
1764,4052968,2027,0,1
1765,4054968,2015,0,1
1766,4056968,2009,1,1
1767,4058968,1976,1,1
1768,4060968,1931,0,1
1769,4062968,1935,0,1
1770,4064968,1950,0,1
1771,4066968,1974,0,1
1772,4068968,1992,0,1
1773,4070968,2008,0,1
1774,4072968,2021,0,1
1775,4074968,2023,0,1
1776,4076968,2011,1,1
1777,4078968,1988,1,1
1778,4080968,1961,0,1
1779,4082968,1957,0,1
1780,4084968,1965,0,1
1781,4086968,1990,0,1
1782,4088968,1993,0,1
1783,4090968,2018,0,1
1784,4092968,2023,0,1
1785,4094968,2009,0,1
1786,4096968,1992,1,1
1787,4098968,1957,1,1
1788,4100968,1913,0,1
1789,4102968,1911,0,1
1790,4104968,1932,0,1
1791,4106968,1959,0,1
1792,4108968,1991,0,1
1793,4110968,2019,0,1
1794,4112968,2030,0,1
1795,4114968,2031,0,1
1796,4116968,2013,1,1
1797,4118968,1967,0,1
1798,4120968,1935,0,1
1799,4122968,1939,0,1
1800,4124968,1944,0,1
1801,4126968,1977,0,1
1802,4128968,1983,0,1
1803,4130968,2020,0,1
1804,4132968,2019,0,1
1805,4134968,2023,0,1
1806,4136968,2015,1,1
1807,4138968,1971,0,1
1808,4140968,1949,0,1
1809,4142968,1952,0,1
1810,4144968,1961,0,1
1811,4146968,1977,0,1
1812,4148968,1992,0,1
1813,4150968,2012,0,1
1814,4152968,2024,0,1
1815,4154968,2023,0,1
1816,4156968,2003,1,1
1817,4158968,1979,0,1
1818,4160968,1961,0,1
1819,4162968,1961,0,1
1820,4164968,1977,0,1
1821,4166968,1972,0,1
1822,4168968,1992,0,1
1823,4170968,2012,0,1
1824,4172968,2022,0,1
1825,4174968,2031,0,1
1826,4176968,2007,1,1
1827,4178968,1971,0,1
1828,4180968,1945,0,1
1829,4182968,1948,0,1
1830,4184968,1975,0,1
1831,4186968,1975,0,1
1832,4188968,1995,0,1
1833,4190968,2013,0,1
1834,4192968,2013,0,1
1835,4194968,2028,0,1
1836,4196968,1999,1,1
1837,4198968,1966,0,1
1838,4200968,1949,0,1
1839,4202968,1950,0,1
1840,4204968,1990,0,1
1841,4206968,1996,0,1
1842,4208968,1997,0,1
1843,4210968,2015,0,1
1844,4212968,2013,0,1
1845,4214968,2031,0,1
1846,4216968,1979,1,1
1847,4218968,1959,0,1
1848,4220968,1951,0,1
1849,4222968,1959,0,1
1850,4224968,1980,0,1
1851,4226968,1997,0,1
1852,4228968,2009,0,1
1853,4230968,2019,0,1
1854,4232968,2024,0,1
1855,4234968,2029,0,1
1856,4236968,2024,1,1
1857,4238968,2029,0,1
1858,4240968,2028,0,1
1859,4242968,2025,0,1
1860,4244968,2023,0,1
1861,4246968,1995,0,1
1862,4248968,1998,0,1
1863,4250968,2002,0,1
1864,4252968,2002,0,1
1865,4254968,2015,0,1
1866,4256968,1981,1,1
1867,4258968,1950,0,1
1868,4260968,1941,0,1
1869,4262968,1957,0,1
1870,4264968,1977,0,1
1871,4266968,1989,0,1
1872,4268968,2005,0,1
1873,4270968,2017,0,1
1874,4272968,2020,0,1
1875,4274968,2030,0,1
1876,4276968,1995,1,1
1877,4278968,1976,0,1
1878,4280968,1948,0,1
1879,4282968,1947,0,1
1880,4284968,1977,0,1
1881,4286968,1983,0,1
1882,4288968,1998,0,1
1883,4290968,2011,0,1
1884,4292968,2015,0,1
1885,4294968,2030,1,1
1886,4296968,2009,1,1
1887,4298968,1952,0,1
1888,4300968,1935,0,1
1889,4302968,1939,0,1
1890,4304968,1976,0,1
1891,4306968,1973,0,1
1892,4308968,1999,0,1
1893,4310968,2024,0,1
1894,4312968,2031,0,1
1895,4314968,2055,0,1
1896,4316968,2029,1,1
1897,4318968,2151,0,1
1898,4320968,2214,0,1
1899,4322968,2195,0,1
1900,4324968,2151,0,1
1901,4326968,2074,0,1
1902,4328968,2015,0,1
1903,4330968,1971,0,1
1904,4332968,1957,0,1
1905,4334968,1967,0,1
1906,4336968,1938,1,1
1907,4338968,1876,0,1
1908,4340968,1833,0,1
1909,4342968,1848,0,1
1910,4344968,1915,0,1
1911,4346968,1957,0,1
1912,4348968,2007,0,1
1913,4350968,2042,0,1
1914,4352968,2045,0,1
1915,4354968,2044,0,1
1916,4356968,2023,1,1
1917,4358968,2009,0,1
1918,4360968,1981,0,1
1919,4362968,1967,0,1
1920,4364968,1971,0,1
1921,4366968,1983,0,1
1922,4368968,1994,0,1
1923,4370968,1999,0,1
1924,4372968,2015,0,1
1925,4374968,2013,0,1
1926,4376968,1975,1,1
1927,4378968,1961,0,1
1928,4380968,1965,0,1
1929,4382968,1963,0,1
1930,4384968,1983,0,1
1931,4386968,1995,0,1
1932,4388968,1999,0,1
1933,4390968,2011,0,1
1934,4392968,2013,0,1
1935,4394968,2019,0,1
1936,4396968,1998,1,1
1937,4398968,1967,0,1
1938,4400968,1946,0,1
1939,4402968,1949,0,1
1940,4404968,1965,0,1
1941,4406968,1983,0,1
1942,4408968,2007,0,1
1943,4410968,2013,0,1
1944,4412968,2020,0,1
1945,4414968,2015,0,1
1946,4416968,1983,1,1
1947,4418968,1972,0,1
1948,4420968,1972,0,1
1949,4422968,1967,0,1
1950,4424968,1975,0,1
1951,4426968,1992,0,1
1952,4428968,1999,0,1
1953,4430968,2011,0,1
1954,4432968,2011,0,1
1955,4434968,2013,1,1
1956,4436968,1991,1,1
1957,4438968,1967,0,1
1958,4440968,1955,0,1
1959,4442968,1959,0,1
1960,4444968,1983,0,1
1961,4446968,1991,0,1
1962,4448968,2007,0,1
1963,4450968,2018,0,1
1964,4452968,2011,0,1
1965,4454968,2023,1,1
1966,4456968,1971,1,1
1967,4458968,1939,0,1
1968,4460968,1925,0,1
1969,4462968,1941,0,1
1970,4464968,1961,0,1
1971,4466968,1977,0,1
1972,4468968,2007,0,1
1973,4470968,2025,0,1
1974,4472968,2034,0,1
1975,4474968,2018,1,1
1976,4476968,1991,1,1
1977,4478968,1959,0,1
1978,4480968,1944,0,1
1979,4482968,1946,0,1
1980,4484968,1973,0,1
1981,4486968,1996,0,1
1982,4488968,2005,0,1
1983,4490968,2023,0,1
1984,4492968,2023,0,1
1985,4494968,2025,1,1
1986,4496968,1983,1,1
1987,4498968,1949,0,1
1988,4500968,1941,0,1
1989,4502968,1951,0,1
1990,4504968,1974,0,1
1991,4506968,1983,0,1
1992,4508968,2007,0,1
1993,4510968,2013,0,1
1994,4512968,2026,0,1
1995,4514968,2011,1,1
1996,4516968,1989,1,1
1997,4518968,1959,0,1
1998,4520968,1954,0,1
1999,4522968,1964,0,1
2000,4524968,1983,0,1
2001,4526968,1999,0,1
2002,4528968,2001,0,1
2003,4530968,2021,0,1
2004,4532968,2024,0,1
2005,4534968,2019,1,1
2006,4536968,2005,1,1
2007,4538968,1992,0,1
2008,4540968,1989,0,1
2009,4542968,1992,0,1
2010,4544968,1991,0,1
2011,4546968,1995,0,1
2012,4548968,2007,0,1
2013,4550968,2003,0,1
2014,4552968,2009,0,1
2015,4554968,1998,1,1
2016,4556968,2011,1,1
2017,4558968,1979,0,1
2018,4560968,1978,0,1
2019,4562968,1980,0,1
2020,4564968,1975,0,1
2021,4566968,1991,0,1
2022,4568968,2003,0,1
2023,4570968,2019,0,1
2024,4572968,2009,0,1
2025,4574968,2020,1,1
2026,4576968,2011,1,1
2027,4578968,1997,0,1
2028,4580968,1993,0,1
2029,4582968,1982,0,1
2030,4584968,1992,0,1
2031,4586968,1997,0,1
2032,4588968,1995,0,1
2033,4590968,2007,0,1
2034,4592968,2013,0,1
2035,4594968,2013,1,1
2036,4596968,2013,1,1
2037,4598968,1991,0,1
2038,4600968,1979,0,1
2039,4602968,1989,0,1
2040,4604968,1991,0,1
2041,4606968,1997,0,1
2042,4608968,2003,0,1
2043,4610968,2018,0,1
2044,4612968,2013,0,1
2045,4614968,2018,1,1
2046,4616968,1993,1,1
2047,4618968,1977,0,1
2048,4620968,1963,0,1
2049,4622968,1975,0,1
2050,4624968,1979,0,1
2051,4626968,1992,0,1
2052,4628968,2009,0,1
2053,4630968,2012,0,1
2054,4632968,2020,0,1
2055,4634968,1991,1,1
2056,4636968,1955,1,1
2057,4638968,1943,0,1
2058,4640968,1938,0,1
2059,4642968,1959,0,1
2060,4644968,1965,0,1
2061,4646968,2004,0,1
2062,4648968,2009,0,1
2063,4650968,2023,0,1
2064,4652968,2029,0,1
2065,4654968,1995,1,1
2066,4656968,1941,1,1
2067,4658968,1915,0,1
2068,4660968,1919,0,1
2069,4662968,1947,0,1
2070,4664968,1971,0,1
2071,4666968,2003,0,1
2072,4668968,2023,0,1
2073,4670968,2024,0,1
2074,4672968,2027,0,1
2075,4674968,2003,1,1
2076,4676968,1949,1,1
2077,4678968,1907,0,1
2078,4680968,1907,0,1
2079,4682968,1928,0,1
2080,4684968,1963,0,1
2081,4686968,1995,0,1
2082,4688968,2019,0,1
2083,4690968,2026,0,1
2084,4692968,2038,0,1
2085,4694968,1982,1,1
2086,4696968,1934,1,1
2087,4698968,1909,0,1
2088,4700968,1907,0,1
2089,4702968,1931,0,1
2090,4704968,1975,0,1
2091,4706968,1997,0,1
2092,4708968,2015,0,1
2093,4710968,2035,0,1
2094,4712968,2029,0,1
2095,4714968,2027,1,1
2096,4716968,1933,1,1
2097,4718968,1908,0,1
2098,4720968,1900,0,1
2099,4722968,1931,0,1
2100,4724968,1983,0,1
2101,4726968,2006,0,1
2102,4728968,2013,0,1
2103,4730968,2031,0,1
2104,4732968,2029,0,1
2105,4734968,2011,1,1
2106,4736968,1977,0,1
2107,4738968,1961,0,1
2108,4740968,1975,0,1
2109,4742968,1992,0,1
2110,4744968,2008,0,1
2111,4746968,2014,0,1
2112,4748968,2011,0,1
2113,4750968,2022,0,1
2114,4752968,2013,0,1
2115,4754968,1976,1,1
2116,4756968,1908,0,1
2117,4758968,1877,0,1
2118,4760968,1882,0,1
2119,4762968,1931,0,1
2120,4764968,1973,0,1
2121,4766968,2009,0,1
2122,4768968,2030,0,1
2123,4770968,2036,0,1
2124,4772968,2035,0,1
2125,4774968,1993,1,1
2126,4776968,1911,0,1
2127,4778968,1884,0,1
2128,4780968,1891,0,1
2129,4782968,1919,0,1
2130,4784968,1983,0,1
2131,4786968,1997,0,1
2132,4788968,2023,0,1
2133,4790968,2031,0,1
2134,4792968,2041,0,1
2135,4794968,2008,1,1
2136,4796968,1927,0,1
2137,4798968,1897,0,1
2138,4800968,1901,0,1
2139,4802968,1940,0,1
2140,4804968,1976,0,1
2141,4806968,2005,0,1
2142,4808968,2023,0,1
2143,4810968,2037,0,1
2144,4812968,2029,0,1
2145,4814968,2005,1,1
2146,4816968,1947,0,1
2147,4818968,1931,0,1
2148,4820968,1932,0,1
2149,4822968,1945,0,1
2150,4824968,1989,0,1
2151,4826968,2007,0,1
2152,4828968,2019,0,1
2153,4830968,2023,0,1
2154,4832968,2025,0,1
2155,4834968,2118,1,1
2156,4836968,2666,0,1
2157,4838968,3049,0,1
2158,4840968,3007,0,1
2159,4842968,2719,0,1
2160,4844968,2367,0,1
2161,4846968,2063,0,1
2162,4848968,1880,0,1
2163,4850968,1809,0,1
2164,4852968,1807,0,1
2165,4854968,1928,1,1
2166,4856968,2470,0,1
2167,4858968,2861,0,1
2168,4860968,2877,0,1
2169,4862968,2674,0,1
2170,4864968,2376,0,1
2171,4866968,2100,0,1
2172,4868968,1910,0,1
2173,4870968,1831,0,1
2174,4872968,1823,0,1
2175,4874968,1847,1,1
2176,4876968,1877,0,1
2177,4878968,1896,0,1
2178,4880968,1949,0,1
2179,4882968,1993,0,1
2180,4884968,2026,0,1
2181,4886968,2029,0,1
2182,4888968,2037,0,1
2183,4890968,2021,0,1
2184,4892968,2009,0,1
2185,4894968,1998,1,1
2186,4896968,1966,0,1
2187,4898968,1959,0,1
2188,4900968,1967,0,1
2189,4902968,1979,0,1
2190,4904968,1999,0,1
2191,4906968,2005,0,1
2192,4908968,2013,0,1
2193,4910968,2021,0,1
2194,4912968,2021,0,1
2195,4914968,1983,1,1
2196,4916968,1935,0,1
2197,4918968,1893,0,1
2198,4920968,1882,0,1
2199,4922968,1917,0,1
2200,4924968,1946,0,1
2201,4926968,1993,0,1
2202,4928968,2020,0,1
2203,4930968,2037,0,1
2204,4932968,2053,0,1
2205,4934968,2005,1,1
2206,4936968,1960,0,1
2207,4938968,1947,0,1
2208,4940968,1948,0,1
2209,4942968,1974,0,1
2210,4944968,1981,0,1
2211,4946968,2003,0,1
2212,4948968,2015,0,1
2213,4950968,2022,0,1
2214,4952968,2021,0,1
2215,4954968,1993,1,1
2216,4956968,1972,0,1
2217,4958968,1967,0,1
2218,4960968,1951,0,1
2219,4962968,1973,0,1
2220,4964968,1977,0,1
2221,4966968,1992,0,1
2222,4968968,2015,0,1
2223,4970968,2012,0,1
2224,4972968,2018,0,1
2225,4974968,1966,1,1
2226,4976968,1903,0,1
2227,4978968,1873,0,1
2228,4980968,1887,0,1
2229,4982968,1932,0,1
2230,4984968,1976,0,1
2231,4986968,2014,0,1
2232,4988968,2036,0,1
2233,4990968,2043,0,1
2234,4992968,2059,0,1
2235,4994968,2055,1,1
2236,4996968,2170,0,1
2237,4998968,2229,0,1
2238,5000968,2207,0,1
2239,5002968,2142,0,1
2240,5004968,2063,0,1
2241,5006968,1997,0,1
2242,5008968,1964,0,1
2243,5010968,1945,0,1
2244,5012968,1957,1,1
2245,5014968,1929,1,1
2246,5016968,1846,0,1
2247,5018968,1805,0,1
2248,5020968,1831,0,1
2249,5022968,1899,0,1
2250,5024968,1947,0,1
2251,5026968,2011,0,1
2252,5028968,2044,0,1
2253,5030968,2053,0,1
2254,5032968,2053,1,1
2255,5034968,1989,1,1
2256,5036968,1932,0,1
2257,5038968,1901,0,1
2258,5040968,1920,0,1
2259,5042968,1945,0,1
2260,5044968,1971,0,1
2261,5046968,2005,0,1
2262,5048968,2025,0,1
2263,5050968,2029,0,1
2264,5052968,2035,1,1
2265,5054968,1995,1,1
2266,5056968,1951,0,1
2267,5058968,1927,0,1
2268,5060968,1940,0,1
2269,5062968,1961,0,1
2270,5064968,1990,0,1
2271,5066968,2009,0,1
2272,5068968,2015,0,1
2273,5070968,2022,0,1
2274,5072968,2027,1,1
2275,5074968,1989,1,1
2276,5076968,1933,0,1
2277,5078968,1933,0,1
2278,5080968,1937,0,1
2279,5082968,1966,0,1
2280,5084968,1977,0,1
2281,5086968,2005,0,1
2282,5088968,2025,0,1
2283,5090968,2031,0,1
2284,5092968,2020,1,1
2285,5094968,1981,1,1
2286,5096968,1961,0,1
2287,5098968,1946,0,1
2288,5100968,1959,0,1
2289,5102968,1981,0,1
2290,5104968,1993,0,1
2291,5106968,2011,0,1
2292,5108968,2021,0,1
2293,5110968,2019,0,1
2294,5112968,2022,1,1
2295,5114968,1973,1,1
2296,5116968,1947,0,1
2297,5118968,1944,0,1
2298,5120968,1950,0,1
2299,5122968,1979,0,1
2300,5124968,1991,0,1
2301,5126968,2007,0,1
2302,5128968,2019,0,1
2303,5130968,2021,0,1
2304,5132968,2013,1,1
2305,5134968,2035,1,1
2306,5136968,2094,0,1
2307,5138968,2109,0,1
2308,5140968,2091,0,1
2309,5142968,2059,0,1
2310,5144968,2025,0,1
2311,5146968,2007,0,1
2312,5148968,1991,0,1
2313,5150968,1983,0,1
2314,5152968,1980,1,1
2315,5154968,1983,1,1
2316,5156968,1959,0,1
2317,5158968,1962,0,1
2318,5160968,1968,0,1
2319,5162968,2002,0,1
2320,5164968,1996,0,1
2321,5166968,2011,0,1
2322,5168968,2013,0,1
2323,5170968,2009,0,1
2324,5172968,2011,1,1
2325,5174968,1957,1,1
2326,5176968,1931,0,1
2327,5178968,1933,0,1
2328,5180968,1949,0,1
2329,5182968,1992,0,1
2330,5184968,1994,0,1
2331,5186968,2011,0,1
2332,5188968,2020,0,1
2333,5190968,2023,0,1
2334,5192968,2027,1,1
2335,5194968,1961,1,1
2336,5196968,1931,0,1
2337,5198968,1919,0,1
2338,5200968,1943,0,1
2339,5202968,1976,0,1
2340,5204968,1990,0,1
2341,5206968,2013,0,1
2342,5208968,2023,0,1
2343,5210968,2021,0,1
2344,5212968,2027,1,1
2345,5214968,1973,1,1
2346,5216968,1959,0,1
2347,5218968,1959,0,1
2348,5220968,1972,0,1
2349,5222968,1993,0,1
2350,5224968,1998,0,1
2351,5226968,2004,0,1
2352,5228968,2012,0,1
2353,5230968,2018,0,1
2354,5232968,2025,1,1
2355,5234968,1971,1,1
2356,5236968,1965,0,1
2357,5238968,1971,0,1
2358,5240968,1975,0,1
2359,5242968,1999,0,1
2360,5244968,2005,0,1
2361,5246968,2009,0,1
2362,5248968,2012,0,1
2363,5250968,2009,0,1
2364,5252968,2011,1,1
2365,5254968,1955,1,1
2366,5256968,1945,0,1
2367,5258968,1955,0,1
2368,5260968,1970,0,1
2369,5262968,1999,0,1
2370,5264968,2003,0,1
2371,5266968,2014,0,1
2372,5268968,2019,0,1
2373,5270968,2009,0,1
2374,5272968,2019,1,1
2375,5274968,2200,1,1
2376,5276968,2409,0,1
2377,5278968,2427,0,1
2378,5280968,2323,0,1
2379,5282968,2195,0,1
2380,5284968,2058,0,1
2381,5286968,1959,0,1
2382,5288968,1935,0,1
2383,5290968,1909,0,1
2384,5292968,1939,1,1
2385,5294968,1933,1,1
2386,5296968,1947,0,1
2387,5298968,1965,0,1
2388,5300968,1989,0,1
2389,5302968,2021,0,1
2390,5304968,2021,0,1
2391,5306968,2019,0,1
2392,5308968,2012,0,1
2393,5310968,2015,0,1
2394,5312968,1999,1,1
2395,5314968,1964,1,1
2396,5316968,1939,0,1
2397,5318968,1933,0,1
2398,5320968,1958,0,1
2399,5322968,1983,0,1
2400,5324968,1989,0,1
2401,5326968,2015,0,1
2402,5328968,2024,0,1
2403,5330968,2021,0,1
2404,5332968,2019,1,1
2405,5334968,1961,1,1
2406,5336968,1741,0,1
2407,5338968,1676,0,1
2408,5340968,1704,0,1
2409,5342968,1813,0,1
2410,5344968,1914,0,1
2411,5346968,2014,0,1
2412,5348968,2073,0,1
2413,5350968,2078,0,1
2414,5352968,2077,1,1
2415,5354968,2021,0,1
2416,5356968,1975,0,1
2417,5358968,1965,0,1
2418,5360968,1961,0,1
2419,5362968,1983,0,1
2420,5364968,1989,0,1
2421,5366968,1997,0,1
2422,5368968,2014,0,1
2423,5370968,2027,0,1
2424,5372968,2001,1,1
2425,5374968,1965,0,1
2426,5376968,1943,0,1
2427,5378968,1959,0,1
2428,5380968,1963,0,1
2429,5382968,1977,0,1
2430,5384968,2002,0,1
2431,5386968,2009,0,1
2432,5388968,2023,0,1
2433,5390968,2011,0,1
2434,5392968,1979,1,1
2435,5394968,1961,0,1
2436,5396968,1945,0,1
2437,5398968,1955,0,1
2438,5400968,1959,0,1
2439,5402968,1979,0,1
2440,5404968,2003,0,1
2441,5406968,2021,0,1
2442,5408968,2014,0,1
2443,5410968,2013,0,1
2444,5412968,1993,1,1
2445,5414968,1967,0,1
2446,5416968,1959,0,1
2447,5418968,1963,0,1
2448,5420968,1982,0,1
2449,5422968,1993,0,1
2450,5424968,1976,0,1
2451,5426968,2007,0,1
2452,5428968,2019,0,1
2453,5430968,2009,0,1
2454,5432968,1981,1,1
2455,5434968,1968,0,1
2456,5436968,1960,0,1
2457,5438968,1959,0,1
2458,5440968,1983,0,1
2459,5442968,1999,0,1
2460,5444968,2010,0,1
2461,5446968,2014,0,1
2462,5448968,2013,0,1
2463,5450968,2023,0,1
2464,5452968,2002,1,1
2465,5454968,1996,0,1
2466,5456968,1991,0,1
2467,5458968,1995,0,1
2468,5460968,2008,0,1
2469,5462968,2003,0,1
2470,5464968,2004,0,1
2471,5466968,2011,0,1
2472,5468968,2003,0,1
2473,5470968,2007,0,1
2474,5472968,1979,1,1
2475,5474968,1957,0,1
2476,5476968,1946,0,1
2477,5478968,1956,0,1
2478,5480968,1962,0,1
2479,5482968,1991,0,1
2480,5484968,1999,0,1
2481,5486968,2023,0,1
2482,5488968,2015,0,1
2483,5490968,2023,0,1
2484,5492968,2005,1,1
2485,5494968,2101,0,1
2486,5496968,2141,0,1
2487,5498968,2143,0,1
2488,5500968,2108,0,1
2489,5502968,2054,0,1
2490,5504968,2014,0,1
2491,5506968,1989,0,1
2492,5508968,1980,0,1
2493,5510968,1981,0,1
2494,5512968,1944,1,1
2495,5514968,1949,0,1
2496,5516968,1961,0,1
2497,5518968,1973,0,1
2498,5520968,1993,0,1
2499,5522968,2014,0,1
2500,5524968,2011,0,1
2501,5526968,2023,0,1
2502,5528968,2014,0,1
2503,5530968,2009,0,1
2504,5532968,1992,1,1
2505,5534968,1981,0,1
2506,5536968,1965,0,1
2507,5538968,1962,0,1
2508,5540968,1979,0,1
2509,5542968,1995,0,1
2510,5544968,1998,0,1
2511,5546968,2013,0,1
2512,5548968,2017,0,1
2513,5550968,2008,0,1
2514,5552968,1995,1,1
2515,5554968,1971,0,1
2516,5556968,1958,0,1
2517,5558968,1967,0,1
2518,5560968,1977,0,1
2519,5562968,1979,0,1
2520,5564968,2005,0,1
2521,5566968,2010,0,1
2522,5568968,2008,0,1
2523,5570968,2011,0,1
2524,5572968,1978,1,1
2525,5574968,1979,0,1
2526,5576968,1971,0,1
2527,5578968,1979,0,1
2528,5580968,1976,0,1
2529,5582968,1993,0,1
2530,5584968,2007,0,1
2531,5586968,2018,0,1
2532,5588968,2013,0,1
2533,5590968,2012,0,1
2534,5592968,1979,1,1
2535,5594968,1961,0,1
2536,5596968,1951,0,1
2537,5598968,1975,0,1
2538,5600968,1976,0,1
2539,5602968,2006,0,1
2540,5604968,2008,0,1
2541,5606968,2015,0,1
2542,5608968,2021,0,1
2543,5610968,2022,1,1
2544,5612968,1968,1,1
2545,5614968,1964,0,1
2546,5616968,1964,0,1
2547,5618968,1963,0,1
2548,5620968,1988,0,1
2549,5622968,1995,0,1
2550,5624968,2005,0,1
2551,5626968,2012,0,1
2552,5628968,2012,0,1
2553,5630968,2013,1,1
2554,5632968,2019,1,1
2555,5634968,2039,0,1
2556,5636968,2057,0,1
2557,5638968,2041,0,1
2558,5640968,2029,0,1
2559,5642968,2011,0,1
2560,5644968,2011,0,1
2561,5646968,2007,0,1
2562,5648968,1991,0,1
2563,5650968,1991,1,1
2564,5652968,1959,1,1
2565,5654968,1937,0,1
2566,5656968,1935,0,1
2567,5658968,1947,0,1
2568,5660968,1967,0,1
2569,5662968,1997,0,1
2570,5664968,2009,0,1
2571,5666968,2019,0,1
2572,5668968,2021,0,1
2573,5670968,2019,1,1
2574,5672968,2029,1,1
2575,5674968,2129,0,1
2576,5676968,2168,0,1
2577,5678968,2153,0,1
2578,5680968,2110,0,1
2579,5682968,2065,0,1
2580,5684968,2022,0,1
2581,5686968,1997,0,1
2582,5688968,1979,0,1
2583,5690968,1973,1,1
2584,5692968,1939,1,1
2585,5694968,1844,0,1
2586,5696968,1801,0,1
2587,5698968,1821,0,1
2588,5700968,1891,0,1
2589,5702968,1956,0,1
2590,5704968,1997,0,1
2591,5706968,2036,0,1
2592,5708968,2045,0,1
2593,5710968,2038,1,1
2594,5712968,1976,1,1
2595,5714968,1895,0,1
2596,5716968,1867,0,1
2597,5718968,1887,0,1
2598,5720968,1919,0,1
2599,5722968,1992,0,1
2600,5724968,2008,0,1
2601,5726968,2037,0,1
2602,5728968,2037,0,1
2603,5730968,2029,1,1
2604,5732968,2015,1,1
2605,5734968,1946,0,1
2606,5736968,1945,0,1
2607,5738968,1950,0,1
2608,5740968,1976,0,1
2609,5742968,2003,0,1
2610,5744968,2007,0,1
2611,5746968,2021,0,1
2612,5748968,2027,0,1
2613,5750968,2015,1,1
2614,5752968,1971,1,1
2615,5754968,1941,0,1
2616,5756968,1939,0,1
2617,5758968,1963,0,1
2618,5760968,1980,0,1
2619,5762968,2003,0,1
2620,5764968,2013,0,1
2621,5766968,2018,0,1
2622,5768968,2027,0,1
2623,5770968,2011,1,1
2624,5772968,2035,1,1
2625,5774968,2032,0,1
2626,5776968,2037,0,1
2627,5778968,2027,0,1
2628,5780968,2010,0,1
2629,5782968,2017,0,1
2630,5784968,1998,0,1
2631,5786968,1999,0,1
2632,5788968,2003,0,1
2633,5790968,1978,1,1
2634,5792968,1995,1,1
2635,5794968,1967,0,1
2636,5796968,1973,0,1
2637,5798968,1990,0,1
2638,5800968,1995,0,1
2639,5802968,2019,0,1
2640,5804968,2010,0,1
2641,5806968,2015,0,1
2642,5808968,2013,0,1
2643,5810968,1993,1,1
2644,5812968,1989,1,1
2645,5814968,1992,0,1
2646,5816968,2007,0,1
2647,5818968,2006,0,1
2648,5820968,1999,0,1
2649,5822968,2019,0,1
2650,5824968,2014,0,1
2651,5826968,2007,0,1
2652,5828968,2005,0,1
2653,5830968,2002,1,1
2654,5832968,1999,1,1
2655,5834968,1971,0,1
2656,5836968,1975,0,1
2657,5838968,1975,0,1
2658,5840968,1992,0,1
2659,5842968,2019,0,1
2660,5844968,2014,0,1
2661,5846968,2013,0,1
2662,5848968,2013,0,1
2663,5850968,2003,1,1
2664,5852968,1971,0,1
2665,5854968,1939,0,1
2666,5856968,1949,0,1
2667,5858968,1951,0,1
2668,5860968,1975,0,1
2669,5862968,2008,0,1
2670,5864968,2019,0,1
2671,5866968,2026,0,1
2672,5868968,2019,0,1
2673,5870968,1995,1,1
2674,5872968,1970,1,1
2675,5874968,1949,0,1
2676,5876968,1951,0,1
2677,5878968,1963,0,1
2678,5880968,1989,0,1
2679,5882968,2013,0,1
2680,5884968,2021,0,1
2681,5886968,2029,0,1
2682,5888968,2013,0,1
2683,5890968,1997,1,1
2684,5892968,1971,0,1
2685,5894968,1941,0,1
2686,5896968,1959,0,1
2687,5898968,1963,0,1
2688,5900968,1989,0,1
2689,5902968,2021,0,1
2690,5904968,2013,0,1
2691,5906968,2023,0,1
2692,5908968,2023,0,1
2693,5910968,1997,1,1
2694,5912968,1989,0,1
2695,5914968,1967,0,1
2696,5916968,1977,0,1
2697,5918968,1981,0,1
2698,5920968,1994,0,1
2699,5922968,2008,0,1
2700,5924968,2019,0,1
2701,5926968,2013,0,1
2702,5928968,2013,0,1
2703,5930968,1990,1,1
2704,5932968,1981,0,1
2705,5934968,1981,0,1
2706,5936968,1992,0,1
2707,5938968,1989,0,1
2708,5940968,1999,0,1
2709,5942968,2005,0,1
2710,5944968,2013,0,1
2711,5946968,2009,0,1
2712,5948968,2011,0,1
2713,5950968,1983,1,1
2714,5952968,1951,0,1
2715,5954968,1951,0,1
2716,5956968,1955,0,1
2717,5958968,1980,0,1
2718,5960968,1997,0,1
2719,5962968,2005,0,1
2720,5964968,2020,0,1
2721,5966968,2008,0,1
2722,5968968,2021,0,1
2723,5970968,1992,1,1
2724,5972968,1952,0,1
2725,5974968,1933,0,1
2726,5976968,1945,0,1
2727,5978968,1967,0,1
2728,5980968,1981,0,1
2729,5982968,2005,0,1
2730,5984968,2012,0,1
2731,5986968,2026,0,1
2732,5988968,2029,0,1
2733,5990968,1983,1,1
2734,5992968,1979,0,1
2735,5994968,1980,0,1
2736,5996968,1994,0,1
2737,5998968,1989,0,1
2738,6000968,1997,0,1
2739,6002968,2003,0,1
2740,6004968,2010,0,1
2741,6006968,2005,0,1
2742,6008968,2011,0,1
2743,6010968,1996,1,1
2744,6012968,2031,0,1
2745,6014968,2057,0,1
2746,6016968,2040,0,1
2747,6018968,2035,0,1
2748,6020968,2015,0,1
2749,6022968,1998,0,1
2750,6024968,2005,0,1
2751,6026968,2005,0,1
2752,6028968,2009,0,1
2753,6030968,1971,1,1
2754,6032968,1951,0,1
2755,6034968,1945,0,1
2756,6036968,1961,0,1
2757,6038968,1980,0,1
2758,6040968,2003,0,1
2759,6042968,2004,0,1
2760,6044968,2013,0,1
2761,6046968,2014,0,1
2762,6048968,2025,0,1
2763,6050968,1981,1,1
2764,6052968,1974,0,1
2765,6054968,1993,0,1
2766,6056968,1991,0,1
2767,6058968,1993,0,1
2768,6060968,1997,0,1
2769,6062968,2006,0,1
2770,6064968,2011,0,1
2771,6066968,2009,0,1
2772,6068968,2007,0,1
2773,6070968,1976,1,1
2774,6072968,1951,0,1
2775,6074968,1955,0,1
2776,6076968,1960,0,1
2777,6078968,1977,0,1
2778,6080968,1996,0,1
2779,6082968,2011,0,1
2780,6084968,2019,0,1
2781,6086968,2021,0,1
2782,6088968,2024,0,1
2783,6090968,1972,1,1
2784,6092968,1972,0,1
2785,6094968,1955,0,1
2786,6096968,1963,0,1
2787,6098968,1980,0,1
2788,6100968,1996,0,1
2789,6102969,2007,0,1
2790,6104968,2012,0,1
2791,6106968,2014,0,1
2792,6108968,2013,0,1
2793,6110968,1981,1,1
2794,6112968,1957,0,1
2795,6114968,1965,0,1
2796,6116968,1983,0,1
2797,6118968,1993,0,1
2798,6120968,2005,0,1
2799,6122968,2005,0,1
2800,6124968,2013,0,1
2801,6126968,2015,0,1
2802,6128968,2020,0,1
2803,6130968,1973,1,1
2804,6132968,1955,0,1
2805,6134968,1959,0,1
2806,6136968,1962,0,1
2807,6138968,1976,0,1
2808,6140968,1992,0,1
2809,6142969,2011,0,1
2810,6144968,2013,0,1
2811,6146968,2019,0,1
2812,6148968,2018,0,1
2813,6150968,1972,1,1
2814,6152968,1977,0,1
2815,6154968,1983,0,1
2816,6156968,1989,0,1
2817,6158968,2005,0,1
2818,6160968,2004,0,1
2819,6162968,2007,0,1
2820,6164968,2009,0,1
2821,6166968,2013,0,1
2822,6168968,2019,0,1
2823,6170968,1980,1,1
2824,6172968,1989,0,1
2825,6174968,1965,0,1
2826,6176968,1971,0,1
2827,6178968,1978,0,1
2828,6180968,1995,0,1
2829,6182969,2005,0,1
2830,6184968,2019,0,1
2831,6186968,2013,0,1
2832,6188968,2010,0,1
2833,6190968,1995,1,1
2834,6192968,1980,0,1
2835,6194968,1988,0,1
2836,6196968,1989,0,1
2837,6198968,2004,0,1
2838,6200968,2009,0,1
2839,6202968,1999,0,1
2840,6204968,2007,0,1
2841,6206968,2011,0,1
2842,6208968,2009,1,1
2843,6210968,1967,1,1
2844,6212968,1972,0,1
2845,6214968,1971,0,1
2846,6216968,1981,0,1
2847,6218968,1994,0,1
2848,6220968,2020,0,1
2849,6222969,2019,0,1
2850,6224968,2007,0,1
2851,6226968,2019,0,1
2852,6228968,2023,1,1
2853,6230968,1990,1,1
2854,6232968,1963,0,1
2855,6234968,1956,0,1
2856,6236968,1974,0,1
2857,6238968,1973,0,1
2858,6240968,2003,0,1
2859,6242968,2013,0,1
2860,6244968,2015,0,1
2861,6246968,2022,0,1
2862,6248968,2004,1,1
2863,6250968,1996,1,1
2864,6252968,1965,0,1
2865,6254968,1961,0,1
2866,6256968,1977,0,1
2867,6258968,1977,0,1
2868,6260968,2009,0,1
2869,6262969,2013,0,1
2870,6264968,2011,0,1
2871,6266968,2021,0,1
2872,6268968,2007,1,1
2873,6270968,2002,1,1
2874,6272968,1967,0,1
2875,6274968,1965,0,1
2876,6276968,1974,0,1
2877,6278968,1983,0,1
2878,6280968,1998,0,1
2879,6282968,2005,0,1
2880,6284968,2014,0,1
2881,6286968,2009,0,1
2882,6288968,2019,1,1
2883,6290968,1997,1,1
2884,6292968,1976,0,1
2885,6294968,1967,0,1
2886,6296968,1974,0,1
2887,6298968,1989,0,1
2888,6300968,2008,0,1
2889,6302969,2013,0,1
2890,6304968,2018,0,1
2891,6306968,2004,0,1
2892,6308968,1998,1,1
2893,6310968,1981,1,1
2894,6312968,1981,0,1
2895,6314968,1983,0,1
2896,6316968,1993,0,1
2897,6318968,1991,0,1
2898,6320968,2009,0,1
2899,6322968,2011,0,1
2900,6324968,2005,0,1
2901,6326968,2008,0,1
2902,6328968,2003,1,1
2903,6330968,1974,1,1
2904,6332968,1951,0,1
2905,6334968,1949,0,1
2906,6336968,1967,0,1
2907,6338968,1987,0,1
2908,6340968,2006,0,1
2909,6342969,2011,0,1
2910,6344968,2019,0,1
2911,6346968,2019,0,1
2912,6348968,2014,1,1
2913,6350968,1990,1,1
2914,6352968,1959,0,1
2915,6354968,1951,0,1
2916,6356968,1967,0,1
2917,6358968,1975,0,1
2918,6360968,2007,0,1
2919,6362968,2008,0,1
2920,6364968,2019,0,1
2921,6366968,2019,0,1
2922,6368968,2009,1,1
2923,6370968,2013,1,1
2924,6372968,2019,0,1
2925,6374968,2028,0,1
2926,6376968,2029,0,1
2927,6378968,2023,0,1
2928,6380968,2027,0,1
2929,6382969,2024,0,1
2930,6384968,2018,0,1
2931,6386968,2012,0,1
2932,6388968,2006,1,1
2933,6390968,2025,1,1
2934,6392968,2078,0,1
2935,6394968,2087,0,1
2936,6396968,2074,0,1
2937,6398968,2031,0,1
2938,6400968,2005,0,1
2939,6402968,1991,0,1
2940,6404968,1982,0,1
2941,6406968,1978,0,1
2942,6408968,1967,1,1
2943,6410968,1963,1,1
2944,6412968,1919,0,1
2945,6414968,1931,0,1
2946,6416968,1949,0,1
2947,6418968,1964,0,1
2948,6420968,1995,0,1
2949,6422969,2012,0,1
2950,6424968,2023,0,1
2951,6426968,2029,0,1
2952,6428968,2015,1,1
2953,6430968,1983,1,1
2954,6432968,1962,0,1
2955,6434968,1959,0,1
2956,6436968,1971,0,1
2957,6438968,1981,0,1
2958,6440968,2003,0,1
2959,6442968,2005,0,1
2960,6444968,2020,0,1
2961,6446968,2019,0,1
2962,6448968,1999,1,1
2963,6450968,1968,1,1
2964,6452968,1973,0,1
2965,6454968,1973,0,1
2966,6456968,1980,0,1
2967,6458968,1993,0,1
2968,6460968,2007,0,1
2969,6462969,2023,0,1
2970,6464968,2015,0,1
2971,6466968,2015,0,1
2972,6468968,1977,1,1
2973,6470968,1967,1,1
2974,6472968,1955,0,1
2975,6474968,1957,0,1
2976,6476968,1973,0,1
2977,6478968,1996,0,1
2978,6480968,2019,0,1
2979,6482968,2018,0,1
2980,6484968,2019,0,1
2981,6486968,2021,0,1
2982,6488968,2013,1,1
2983,6490968,1982,1,1
2984,6492968,1977,0,1
2985,6494968,1973,0,1
2986,6496968,1980,0,1
2987,6498968,1994,0,1
2988,6500968,2003,0,1
2989,6502969,2021,0,1
2990,6504968,2020,0,1
2991,6506968,2012,0,1
2992,6508968,1976,1,1
2993,6510968,1958,0,1
2994,6512968,1959,0,1
2995,6514968,1955,0,1
2996,6516968,1973,0,1
2997,6518968,1993,0,1
2998,6520968,1995,0,1
2999,6522968,2009,0,1
3000,6524968,2021,0,1
3001,6526968,2018,0,1
3002,6528968,2003,1,1
3003,6530968,1980,0,1
3004,6532968,1967,0,1
3005,6534968,1957,0,1
3006,6536968,1963,0,1
3007,6538968,1981,0,1
3008,6540968,2004,0,1
3009,6542969,2021,0,1
3010,6544968,2019,0,1
3011,6546968,2023,0,1
3012,6548968,1995,1,1
3013,6550968,1972,0,1
3014,6552968,1960,0,1
3015,6554968,1964,0,1
3016,6556968,1979,0,1
3017,6558968,1999,0,1
3018,6560968,2003,0,1
3019,6562968,2012,0,1
3020,6564968,2011,0,1
3021,6566968,2018,0,1
3022,6568968,1981,1,1
3023,6570968,1961,0,1
3024,6572968,1959,0,1
3025,6574968,1971,0,1
3026,6576968,1975,0,1
3027,6578968,1996,0,1
3028,6580968,2008,0,1
3029,6582969,2019,0,1
3030,6584968,2012,0,1
3031,6586968,2011,0,1
3032,6588968,1996,1,1
3033,6590968,1973,0,1
3034,6592968,1972,0,1
3035,6594968,1972,0,1
3036,6596968,1981,0,1
3037,6598968,1997,0,1
3038,6600968,2004,0,1
3039,6602968,2009,0,1
3040,6604968,2011,0,1
3041,6606968,2015,0,1
3042,6608968,1982,1,1
3043,6610968,1967,0,1
3044,6612968,1975,0,1
3045,6614968,1977,0,1
3046,6616968,1993,0,1
3047,6618968,1994,0,1
3048,6620968,2011,0,1
3049,6622969,2025,0,1
3050,6624968,2009,0,1
3051,6626968,2018,0,1
3052,6628968,1992,1,1
3053,6630968,1992,0,1
3054,6632968,1998,0,1
3055,6634968,2005,0,1
3056,6636968,2009,0,1
3057,6638968,2004,0,1
3058,6640968,2003,0,1
3059,6642968,2005,0,1
3060,6644968,2002,0,1
3061,6646968,2012,0,1
3062,6648968,1983,1,1
3063,6650968,1958,0,1
3064,6652968,1947,0,1
3065,6654968,1959,0,1
3066,6656968,1972,0,1
3067,6658968,1989,0,1
3068,6660968,2003,0,1
3069,6662969,2027,0,1
3070,6664968,2019,0,1
3071,6666968,2021,0,1
3072,6668968,1992,1,1
3073,6670968,1897,0,1
3074,6672968,1960,0,1
3075,6674968,1975,0,1
3076,6676968,1977,0,1
3077,6678968,1993,0,1
3078,6680968,2009,0,1
3079,6682968,2009,0,1
3080,6684968,2013,0,1
3081,6686968,2020,0,1
3082,6688968,1990,1,1
3083,6690968,1983,0,1
3084,6692968,1984,0,1
3085,6694968,1989,0,1
3086,6696968,1999,0,1
3087,6698968,2005,0,1
3088,6700968,2004,0,1
3089,6702969,2009,0,1
3090,6704968,2012,0,1
3091,6706968,2001,0,1
3092,6708968,1964,1,1
3093,6710968,1944,0,1
3094,6712968,1933,0,1
3095,6714968,1944,0,1
3096,6716968,1973,0,1
3097,6718968,1977,0,1
3098,6720968,2005,0,1
3099,6722968,2023,0,1
3100,6724968,2026,0,1
3101,6726968,2023,0,1
3102,6728968,1973,1,1
3103,6730968,1963,0,1
3104,6732968,1971,0,1
3105,6734968,1972,0,1
3106,6736968,1991,0,1
3107,6738968,1997,0,1
3108,6740968,2012,0,1
3109,6742969,2020,0,1
3110,6744968,2018,0,1
3111,6746968,2014,0,1
3112,6748968,1976,1,1
3113,6750968,1981,0,1
3114,6752968,1977,0,1
3115,6754968,1991,0,1
3116,6756968,1993,0,1
3117,6758968,1998,0,1
3118,6760968,2025,0,1
3119,6762968,2013,0,1
3120,6764968,2010,0,1
3121,6766968,2013,0,1
3122,6768968,1965,1,1
3123,6770968,1949,0,1
3124,6772968,1947,0,1
3125,6774968,1966,0,1
3126,6776968,1989,0,1
3127,6778968,1989,0,1
3128,6780968,2013,0,1
3129,6782969,2028,0,1
3130,6784968,2019,0,1
3131,6786968,2022,1,1
3132,6788968,1966,1,1
3133,6790968,1972,0,1
3134,6792968,1971,0,1
3135,6794968,1975,0,1
3136,6796968,1993,0,1
3137,6798968,1993,0,1
3138,6800968,2019,0,1
3139,6802968,2020,0,1
3140,6804968,2013,0,1
3141,6806968,2007,1,1
3142,6808968,1981,1,1
3143,6810968,1996,0,1
3144,6812968,1998,0,1
3145,6814968,2005,0,1
3146,6816968,2007,0,1
3147,6818968,2009,0,1
3148,6820968,2015,0,1
3149,6822969,2012,0,1
3150,6824968,2002,0,1
3151,6826968,2013,1,1
3152,6828968,1975,1,1
3153,6830968,1973,0,1
3154,6832968,1972,0,1
3155,6834968,1975,0,1
3156,6836968,1995,0,1
3157,6838968,2003,0,1
3158,6840968,2025,0,1
3159,6842968,2011,0,1
3160,6844968,2020,0,1
3161,6846968,2015,1,1
3162,6848968,1987,1,1
3163,6850968,2003,0,1
3164,6852968,2009,0,1
3165,6854968,2012,0,1
3166,6856968,2011,0,1
3167,6858968,2005,0,1
3168,6860968,2020,0,1
3169,6862969,2018,0,1
3170,6864968,2007,0,1
3171,6866968,2013,1,1
3172,6868968,1976,1,1
3173,6870968,1975,0,1
3174,6872968,1971,0,1
3175,6874968,1981,0,1
3176,6876968,1994,0,1
3177,6878968,1995,0,1
3178,6880968,2015,0,1
3179,6882968,2012,0,1
3180,6884968,2010,0,1
3181,6886968,2013,1,1
3182,6888968,1967,1,1
3183,6890968,1967,0,1
3184,6892968,1961,0,1
3185,6894968,1965,0,1
3186,6896968,1979,0,1
3187,6898968,1999,0,1
3188,6900968,2021,0,1
3189,6902969,2025,0,1
3190,6904968,2023,0,1
3191,6906968,2003,1,1
3192,6908968,1983,1,1
3193,6910968,1967,0,1
3194,6912968,1963,0,1
3195,6914968,1971,0,1
3196,6916968,1977,0,1
3197,6918968,1992,0,1
3198,6920968,2022,0,1
3199,6922968,2015,0,1
3200,6924968,2008,0,1
3201,6926968,2008,1,1
3202,6928968,1967,1,1
3203,6930968,1973,0,1
3204,6932968,1967,0,1
3205,6934968,1976,0,1
3206,6936968,1989,0,1
3207,6938968,2004,0,1
3208,6940968,2008,0,1
3209,6942969,2023,0,1
3210,6944968,2014,0,1
3211,6946968,1997,1,1
3212,6948968,1957,1,1
3213,6950968,1940,0,1
3214,6952968,1944,0,1
3215,6954968,1950,0,1
3216,6956968,1979,0,1
3217,6958968,1995,0,1
3218,6960968,2008,0,1
3219,6962968,2021,0,1
3220,6964968,2019,0,1
3221,6966968,2009,1,1
3222,6968968,1973,1,1
3223,6970968,1959,0,1
3224,6972968,1964,0,1
3225,6974968,1982,0,1
3226,6976968,1995,0,1
3227,6978968,1997,0,1
3228,6980968,2008,0,1
3229,6982969,2020,0,1
3230,6984968,2013,0,1
3231,6986968,2007,1,1
3232,6988968,1979,1,1
3233,6990968,1941,0,1
3234,6992968,1916,0,1
3235,6994968,1929,0,1
3236,6996968,1941,0,1
3237,6998968,1974,0,1
3238,7000968,2002,0,1
3239,7002968,2024,0,1
3240,7004968,2031,0,1
3241,7006968,2019,1,1
3242,7008968,1992,1,1
3243,7010968,1965,0,1
3244,7012968,1967,0,1
3245,7014968,1977,0,1
3246,7016968,1983,0,1
3247,7018968,2001,0,1
3248,7020968,2013,0,1
3249,7022969,2013,0,1
3250,7024968,2017,0,1
3251,7026968,1981,1,1
3252,7028968,1967,1,1
3253,7030968,1975,0,1
3254,7032968,1971,0,1
3255,7034968,1980,0,1
3256,7036968,1990,0,1
3257,7038968,1995,0,1
3258,7040968,2014,0,1
3259,7042968,2021,0,1
3260,7044968,2021,0,1
3261,7046968,1997,1,1
3262,7048968,1981,1,1
3263,7050968,1967,0,1
3264,7052968,1981,0,1
3265,7054968,1983,0,1
3266,7056968,1993,0,1
3267,7058968,2005,0,1
3268,7060968,2009,0,1
3269,7062969,2023,0,1
3270,7064968,2022,0,1
3271,7066968,1991,1,1
3272,7068968,2035,1,1
3273,7070968,2077,0,1
3274,7072968,2091,0,1
3275,7074968,2074,0,1
3276,7076968,2053,0,1
3277,7078968,2013,0,1
3278,7080968,1998,0,1
3279,7082968,1994,0,1
3280,7084968,1992,0,1
3281,7086968,1975,1,1
3282,7088968,1966,1,1
3283,7090968,2008,0,1
3284,7092968,2029,0,1
3285,7094968,2045,0,1
3286,7096968,2044,0,1
3287,7098968,2037,0,1
3288,7100968,2028,0,1
3289,7102969,2015,0,1
3290,7104968,2019,0,1
3291,7106968,1998,1,1
3292,7108968,2027,0,1
3293,7110968,2069,0,1
3294,7112968,2073,0,1
3295,7114968,2055,0,1
3296,7116968,2021,0,1
3297,7118968,2004,0,1
3298,7120968,1992,0,1
3299,7122968,1983,0,1
3300,7124968,1976,0,1
3301,7126968,1971,1,1
3302,7128968,1932,0,1
3303,7130968,1911,0,1
3304,7132968,1907,0,1
3305,7134968,1938,0,1
3306,7136968,1967,0,1
3307,7138968,1995,0,1
3308,7140968,2018,0,1
3309,7142969,2025,0,1
3310,7144968,2024,0,1
3311,7146968,1998,1,1
3312,7148968,1974,0,1
3313,7150968,1960,0,1
3314,7152968,1967,0,1
3315,7154968,1976,0,1
3316,7156968,1984,0,1
3317,7158968,1995,0,1
3318,7160968,2006,0,1
3319,7162968,2007,0,1
3320,7164968,2009,0,1
3321,7166968,1988,1,1
3322,7168968,1965,0,1
3323,7170968,1951,0,1
3324,7172968,1949,0,1
3325,7174968,1967,0,1
3326,7176968,1980,0,1
3327,7178968,1995,0,1
3328,7180968,2013,0,1
3329,7182969,2019,0,1
3330,7184968,2025,0,1
3331,7186968,2005,1,1
3332,7188968,1999,0,1
3333,7190968,1992,0,1
3334,7192968,1994,0,1
3335,7194968,2002,0,1
3336,7196968,2003,0,1
3337,7198968,2011,0,1
3338,7200968,2009,0,1
3339,7202968,2009,0,1
3340,7204968,2007,0,1
3341,7206968,1983,1,1
3342,7208968,1993,0,1
3343,7210968,1967,0,1
3344,7212968,1973,0,1
3345,7214968,1983,0,1
3346,7216968,1993,0,1
3347,7218968,2014,0,1
3348,7220968,2014,0,1
3349,7222969,2013,0,1
3350,7224968,2013,0,1
3351,7226968,1982,1,1
3352,7228968,1957,0,1
3353,7230968,1943,0,1
3354,7232968,1957,0,1
3355,7234968,1973,0,1
3356,7236968,1977,0,1
3357,7238968,2017,0,1
3358,7240968,2022,0,1
3359,7242968,2019,0,1
3360,7244968,2013,0,1
3361,7246968,1992,1,1
3362,7248968,1966,0,1
3363,7250968,1960,0,1
3364,7252968,1959,0,1
3365,7254968,1982,0,1
3366,7256968,1989,0,1
3367,7258968,2009,0,1
3368,7260968,2015,0,1
3369,7262969,2019,0,1
3370,7264968,2009,0,1
3371,7266968,1977,1,1
3372,7268968,1976,0,1
3373,7270968,1956,0,1
3374,7272968,1955,0,1
3375,7274968,1974,0,1
3376,7276968,1988,0,1
3377,7278968,2015,0,1
3378,7280968,2018,0,1
3379,7282968,2011,0,1
3380,7284968,2022,0,1
3381,7286968,1976,1,1
3382,7288968,1961,0,1
3383,7290968,1956,0,1
3384,7292968,1967,0,1
3385,7294968,1991,0,1
3386,7296968,1990,0,1
3387,7298968,2013,0,1
3388,7300968,2009,0,1
3389,7302969,2022,0,1
3390,7304968,2019,0,1
3391,7306968,1971,1,1
3392,7308968,1975,0,1
3393,7310968,1957,0,1
3394,7312968,1963,0,1
3395,7314968,1976,0,1
3396,7316968,1997,0,1
3397,7318968,2017,0,1
3398,7320968,2019,0,1
3399,7322968,2023,0,1
3400,7324968,2013,0,1
3401,7326968,1997,1,1
3402,7328968,1997,0,1
3403,7330968,1983,0,1
3404,7332968,1992,0,1
3405,7334968,1996,0,1
3406,7336968,1997,0,1
3407,7338968,2023,0,1
3408,7340968,2012,0,1
3409,7342969,2023,0,1
3410,7344968,2009,0,1
3411,7346968,1975,1,1
3412,7348968,1990,0,1
3413,7350968,1979,0,1
3414,7352968,1993,0,1
3415,7354968,2004,0,1
3416,7356968,2003,0,1
3417,7358968,2011,0,1
3418,7360968,2019,0,1
3419,7362968,2010,0,1
3420,7364968,2013,1,1
3421,7366968,1975,1,1
3422,7368968,1998,0,1
3423,7370968,1998,0,1
3424,7372968,2007,0,1
3425,7374968,2009,0,1
3426,7376968,2013,0,1
3427,7378968,2013,0,1
3428,7380968,2005,0,1
3429,7382969,2006,0,1
3430,7384968,2007,1,1
3431,7386968,1967,1,1
3432,7388968,1967,0,1
3433,7390968,1959,0,1
3434,7392968,1971,0,1
3435,7394968,1990,0,1
3436,7396968,1999,0,1
3437,7398968,2025,0,1
3438,7400968,2019,0,1
3439,7402968,2025,0,1
3440,7404968,2011,1,1
3441,7406968,1997,1,1
3442,7408968,1982,0,1
3443,7410968,1974,0,1
3444,7412968,1989,0,1
3445,7414968,1980,0,1
3446,7416968,1992,0,1
3447,7418968,2008,0,1
3448,7420968,2015,0,1
3449,7422969,2009,0,1
3450,7424968,2002,1,1
3451,7426968,1997,1,1
3452,7428968,1972,0,1
3453,7430968,1977,0,1
3454,7432968,1983,0,1
3455,7434968,1991,0,1
3456,7436968,1997,0,1
3457,7438968,2005,0,1
3458,7440968,2012,0,1
3459,7442968,2004,0,1
3460,7444968,2003,1,1
3461,7446968,1981,1,1
3462,7448968,1975,0,1
3463,7450968,1979,0,1
3464,7452968,1983,0,1
3465,7454968,1993,0,1
3466,7456968,1998,0,1
3467,7458968,2003,0,1
3468,7460968,2013,0,1
3469,7462969,2023,0,1
3470,7464968,1996,1,1
3471,7466968,1981,1,1
3472,7468968,1960,0,1
3473,7470968,1959,0,1
3474,7472968,1971,0,1
3475,7474968,1979,0,1
3476,7476968,1981,0,1
3477,7478968,2007,0,1
3478,7480968,2019,0,1
3479,7482968,2023,0,1
3480,7484968,2011,1,1
3481,7486968,1983,1,1
3482,7488968,1957,0,1
3483,7490968,1941,0,1
3484,7492968,1947,0,1
3485,7494968,1972,0,1
3486,7496968,1989,0,1
3487,7498968,2010,0,1
3488,7500968,2015,0,1
3489,7502969,2025,0,1
3490,7504968,2009,1,1
3491,7506968,1978,1,1
3492,7508968,1973,0,1
3493,7510968,1972,0,1
3494,7512968,1983,0,1
3495,7514968,1991,0,1
3496,7516968,2001,0,1
3497,7518968,2008,0,1
3498,7520968,2015,0,1
3499,7522968,2022,0,1
3500,7524968,2007,1,1
3501,7526968,1979,1,1
3502,7528968,1977,0,1
3503,7530968,1988,0,1
3504,7532968,1989,0,1
3505,7534968,1991,0,1
3506,7536968,1997,0,1
3507,7538968,2009,0,1
3508,7540968,2009,0,1
3509,7542969,2019,0,1
3510,7544968,1997,1,1
3511,7546968,2008,1,1
3512,7548968,2005,0,1
3513,7550968,2013,0,1
3514,7552968,2015,0,1
3515,7554968,2011,0,1
3516,7556968,2009,0,1
3517,7558968,2008,0,1
3518,7560968,2006,0,1
3519,7562968,2003,0,1
3520,7564968,1991,1,1
3521,7566968,1976,1,1
3522,7568968,1964,0,1
3523,7570968,1973,0,1
3524,7572968,1980,0,1
3525,7574968,1989,0,1
3526,7576968,2007,0,1
3527,7578968,2015,0,1
3528,7580968,2014,0,1
3529,7582969,2015,0,1
3530,7584968,2003,1,1
3531,7586968,1965,1,1
3532,7588968,1959,0,1
3533,7590968,1959,0,1
3534,7592968,1971,0,1
3535,7594968,1990,0,1
3536,7596968,2005,0,1
3537,7598968,2008,0,1
3538,7600968,2013,0,1
3539,7602968,2013,0,1
3540,7604968,1989,1,1
3541,7606968,1965,1,1
3542,7608968,1951,0,1
3543,7610968,1955,0,1
3544,7612968,1975,0,1
3545,7614968,1981,0,1
3546,7616968,1996,0,1
3547,7618968,2019,0,1
3548,7620968,2013,0,1
3549,7622969,2019,0,1
3550,7624968,1981,1,1
3551,7626968,1971,1,1
3552,7628968,1959,0,1
3553,7630968,1949,0,1
3554,7632968,1967,0,1
3555,7634968,1980,0,1
3556,7636968,1993,0,1
3557,7638968,2013,0,1
3558,7640968,2019,0,1
3559,7642968,2019,0,1
3560,7644968,2009,1,1
3561,7646968,1971,1,1
3562,7648968,1959,0,1
3563,7650968,1962,0,1
3564,7652968,1977,0,1
3565,7654968,1981,0,1
3566,7656968,2003,0,1
3567,7658968,2012,0,1
3568,7660968,2019,0,1
3569,7662969,2020,0,1
3570,7664968,2004,1,1
3571,7666968,1979,0,1
3572,7668968,1962,0,1
3573,7670968,1973,0,1
3574,7672968,1989,0,1
3575,7674968,1989,0,1
3576,7676968,2005,0,1
3577,7678968,2004,0,1
3578,7680968,2013,0,1
3579,7682968,2018,0,1
3580,7684968,1976,1,1
3581,7686968,1993,0,1
3582,7688968,2011,0,1
3583,7690968,2027,0,1
3584,7692968,2025,0,1
3585,7694968,2014,0,1
3586,7696968,2009,0,1
3587,7698968,2006,0,1
3588,7700968,2003,0,1
3589,7702969,2013,0,1
3590,7704968,1983,1,1
3591,7706968,1971,0,1
3592,7708968,1959,0,1
3593,7710968,1962,0,1
3594,7712968,1967,0,1
3595,7714968,1983,0,1
3596,7716968,2011,0,1
3597,7718968,2009,0,1
3598,7720968,2013,0,1
3599,7722968,2021,0,1
3600,7724968,2006,1,1
3601,7726968,2003,0,1
3602,7728968,2009,0,1
3603,7730968,2005,0,1
3604,7732968,2001,0,1
3605,7734968,2003,0,1
3606,7736968,1996,0,1
3607,7738968,2002,0,1
3608,7740968,2005,0,1
3609,7742969,2019,0,1
3610,7744968,1979,1,1
3611,7746968,1971,0,1
3612,7748968,1994,0,1
3613,7750968,2010,0,1
3614,7752968,2018,0,1
3615,7754968,2019,0,1
3616,7756968,2007,0,1
3617,7758968,2015,0,1
3618,7760968,2003,0,1
3619,7762968,2010,0,1
3620,7764968,1975,1,1
3621,7766968,1971,0,1
3622,7768968,1979,0,1
3623,7770968,1967,0,1
3624,7772968,1997,0,1
3625,7774968,2004,0,1
3626,7776968,2011,0,1
3627,7778968,2035,0,1
3628,7780968,2023,0,1
3629,7782969,2013,0,1
3630,7784968,1972,1,1
3631,7786968,1941,0,1
3632,7788968,1946,0,1
3633,7790968,1935,0,1
3634,7792968,1967,0,1
3635,7794968,1981,0,1
3636,7796968,1996,0,1
3637,7798968,2029,0,1
3638,7800968,2027,0,1
3639,7802968,2027,0,1
3640,7804968,1990,1,1
3641,7806968,1971,0,1
3642,7808968,1977,0,1
3643,7810968,1967,0,1
3644,7812968,1976,0,1
3645,7814968,1992,0,1
3646,7816968,2003,0,1
3647,7818968,2015,0,1
3648,7820968,2010,0,1
3649,7822969,2021,0,1
3650,7824968,1991,1,1
3651,7826968,1945,0,1
3652,7828968,1917,0,1
3653,7830968,1918,0,1
3654,7832968,1958,0,1
3655,7834968,1981,0,1
3656,7836968,2007,0,1
3657,7838968,2037,0,1
3658,7840968,2037,0,1
3659,7842968,2039,0,1
3660,7844968,2052,1,1
3661,7846968,2173,0,1
3662,7848968,2291,0,1
3663,7850968,2275,0,1
3664,7852968,2201,0,1
3665,7854968,2107,0,1
3666,7856968,2027,0,1
3667,7858968,1977,0,1
3668,7860968,1946,0,1
3669,7862969,1937,0,1
3670,7864968,1933,1,1
3671,7866968,1811,0,1
3672,7868968,1749,0,1
3673,7870968,1757,0,1
3674,7872968,1836,0,1
3675,7874968,1912,0,1
3676,7876968,1995,0,1
3677,7878968,2060,0,1
3678,7880968,2076,0,1
3679,7882968,2067,0,1
3680,7884968,2137,1,1
3681,7886968,2509,0,1
3682,7888968,2695,0,1
3683,7890968,2605,0,1
3684,7892968,2407,0,1
3685,7894968,2187,0,1
3686,7896968,1997,0,1
3687,7898968,1909,0,1
3688,7900968,1863,0,1
3689,7902969,1882,0,1
3690,7904968,1897,1,1
3691,7906968,1949,0,1
3692,7908968,1995,0,1
3693,7910968,2015,0,1
3694,7912968,2037,0,1
3695,7914968,2023,0,1
3696,7916968,2025,0,1
3697,7918968,2029,0,1
3698,7920968,2010,0,1
3699,7922968,2010,0,1
3700,7924968,1700,1,1
3701,7926968,1959,0,1
3702,7928968,1976,0,1
3703,7930968,1973,0,1
3704,7932968,1991,0,1
3705,7934968,1994,0,1
3706,7936968,2002,0,1
3707,7938968,2025,0,1
3708,7940968,2010,0,1
3709,7942969,2023,1,1
3710,7944968,1996,1,1
3711,7946968,1973,0,1
3712,7948968,1975,0,1
3713,7950968,1967,0,1
3714,7952968,1995,0,1
3715,7954968,1993,0,1
3716,7956968,2006,0,1
3717,7958968,2026,0,1
3718,7960968,2011,0,1
3719,7962968,2012,1,1
3720,7964968,1982,1,1
3721,7966968,1961,0,1
3722,7968968,1971,0,1
3723,7970968,1976,0,1
3724,7972968,1995,0,1
3725,7974968,1998,0,1
3726,7976968,2008,0,1
3727,7978968,2015,0,1
3728,7980968,2014,0,1
3729,7982969,2024,1,1
3730,7984968,1981,1,1
3731,7986968,1951,0,1
3732,7988968,1955,0,1
3733,7990968,1964,0,1
3734,7992968,1973,0,1
3735,7994968,1989,0,1
3736,7996968,2005,0,1
3737,7998968,2015,0,1
3738,8000968,2012,0,1
3739,8002968,2014,1,1
3740,8004968,1968,1,1
3741,8006968,1943,0,1
3742,8008968,1935,0,1
3743,8010968,1939,0,1
3744,8012968,1960,0,1
3745,8014968,1989,0,1
3746,8016968,2007,0,1
3747,8018968,2018,0,1
3748,8020968,2020,0,1
3749,8022969,2026,1,1
3750,8024968,1967,1,1
3751,8026968,1961,0,1
3752,8028968,1955,0,1
3753,8030968,1966,0,1
3754,8032968,1981,0,1
3755,8034968,1991,0,1
3756,8036968,2007,0,1
3757,8038968,2019,0,1
3758,8040968,2019,0,1
3759,8042968,2010,1,1
3760,8044968,1989,1,1
3761,8046968,1980,0,1
3762,8048968,1983,0,1
3763,8050968,1989,0,1
3764,8052968,1991,0,1
3765,8054968,2001,0,1
3766,8056968,2006,0,1
3767,8058968,2013,0,1
3768,8060968,2013,0,1
3769,8062969,2009,1,1
3770,8064968,1988,1,1
3771,8066968,2011,0,1
3772,8068968,2011,0,1
3773,8070968,2019,0,1
3774,8072968,2011,0,1
3775,8074968,2011,0,1
3776,8076968,2009,0,1
3777,8078968,2003,0,1
3778,8080968,2005,0,1
3779,8082968,2011,1,1
3780,8084968,1956,1,1
3781,8086968,1931,0,1
3782,8088968,1941,0,1
3783,8090968,1959,0,1
3784,8092968,1991,0,1
3785,8094968,2001,0,1
3786,8096968,2009,0,1
3787,8098968,2029,0,1
3788,8100968,2028,0,1
3789,8102969,2003,1,1
3790,8104968,1979,1,1
3791,8106968,1933,0,1
3792,8108968,1962,0,1
3793,8110968,1973,0,1
3794,8112968,1981,0,1
3795,8114968,1996,0,1
3796,8116968,2008,0,1
3797,8118968,2012,0,1
3798,8120968,2021,0,1
3799,8122968,2005,1,1
3800,8124968,1983,1,1
3801,8126968,1957,0,1
3802,8128968,1955,0,1
3803,8130968,1963,0,1
3804,8132968,1988,0,1
3805,8134968,1990,0,1
3806,8136968,2011,0,1
3807,8138968,2020,0,1
3808,8140968,2023,0,1
3809,8142969,2007,1,1
3810,8144968,1975,1,1
3811,8146968,1963,0,1
3812,8148968,1957,0,1
3813,8150968,1965,0,1
3814,8152968,1979,0,1
3815,8154968,1991,0,1
3816,8156968,2011,0,1
3817,8158968,2011,0,1
3818,8160968,2019,0,1
3819,8162968,1995,1,1
3820,8164968,1973,1,1
3821,8166968,1961,0,1
3822,8168968,1958,0,1
3823,8170968,1975,0,1
3824,8172968,1992,0,1
3825,8174968,2001,0,1
3826,8176968,2007,0,1
3827,8178968,2021,0,1
3828,8180968,2011,0,1
3829,8182969,1995,1,1
3830,8184968,1991,1,1
3831,8186968,1979,0,1
3832,8188968,1981,0,1
3833,8190968,1990,0,1
3834,8192968,1991,0,1
3835,8194968,1992,0,1
3836,8196968,2003,0,1
3837,8198968,2009,0,1
3838,8200968,2011,0,1
3839,8202968,2003,1,1
3840,8204968,1993,1,1
3841,8206968,1994,0,1
3842,8208968,1995,0,1
3843,8210968,1992,0,1
3844,8212968,1997,0,1
3845,8214968,2005,0,1
3846,8216968,2012,0,1
3847,8218968,2013,0,1
3848,8220968,2012,0,1
3849,8222969,2005,1,1
3850,8224968,1983,1,1
3851,8226968,1997,0,1
3852,8228968,1996,0,1
3853,8230968,1999,0,1
3854,8232968,1997,0,1
3855,8234968,2004,0,1
3856,8236968,2025,0,1
3857,8238968,2012,0,1
3858,8240968,2008,0,1
3859,8242968,1995,1,1
3860,8244968,1978,1,1
3861,8246968,1995,0,1
3862,8248968,1977,0,1
3863,8250968,1981,0,1
3864,8252968,1995,0,1
3865,8254968,1993,0,1
3866,8256968,2011,0,1
3867,8258968,2013,0,1
3868,8260968,2005,0,1
3869,8262969,2004,1,1
3870,8264968,1990,0,1
3871,8266968,1993,0,1
3872,8268968,1975,0,1
3873,8270968,1983,0,1
3874,8272968,1991,0,1
3875,8274968,2003,0,1
3876,8276968,2012,0,1
3877,8278968,2019,0,1
3878,8280968,2012,0,1
3879,8282968,2005,1,1
3880,8284968,1983,0,1
3881,8286968,1979,0,1
3882,8288968,1971,0,1
3883,8290968,1981,0,1
3884,8292968,1989,0,1
3885,8294968,1991,0,1
3886,8296968,2014,0,1
3887,8298968,2014,0,1
3888,8300968,2012,0,1
3889,8302969,2002,1,1
3890,8304968,1989,0,1
3891,8306968,1991,0,1
3892,8308968,1979,0,1
3893,8310968,1997,0,1
3894,8312968,2001,0,1
3895,8314968,2006,0,1
3896,8316968,2023,0,1
3897,8318968,2010,0,1
3898,8320968,2011,0,1
3899,8322968,1992,1,1
3900,8324968,1982,0,1
3901,8326968,1975,0,1
3902,8328968,1965,0,1
3903,8330968,1977,0,1
3904,8332968,1983,0,1
3905,8334968,1997,0,1
3906,8336968,2013,0,1
3907,8338968,2021,0,1
3908,8340968,2021,0,1
3909,8342969,1999,1,1
3910,8344968,1976,0,1
3911,8346968,1981,0,1
3912,8348968,1976,0,1
3913,8350968,1983,0,1
3914,8352968,1993,0,1
3915,8354968,1999,0,1
3916,8356968,2026,0,1
3917,8358968,2012,0,1
3918,8360968,2010,0,1
3919,8362968,1996,1,1
3920,8364968,1977,0,1
3921,8366968,1981,0,1
3922,8368968,1977,0,1
3923,8370968,1988,0,1
3924,8372968,1997,0,1
3925,8374968,2009,0,1
3926,8376968,2015,0,1
3927,8378968,2005,0,1
3928,8380968,2009,0,1
3929,8382969,1973,1,1
3930,8384968,1971,0,1
3931,8386968,1978,0,1
3932,8388968,1977,0,1
3933,8390968,1982,0,1
3934,8392968,1995,0,1
3935,8394968,2002,0,1
3936,8396968,2013,0,1
3937,8398968,2013,0,1
3938,8400968,2008,0,1
3939,8402968,2011,1,1
3940,8404968,2043,0,1
3941,8406968,2068,0,1
3942,8408968,2063,0,1
3943,8410968,2029,0,1
3944,8412968,2020,0,1
3945,8414968,2004,0,1
3946,8416968,2004,0,1
3947,8418968,1988,0,1
3948,8420968,2003,0,1
3949,8422969,1975,1,1
3950,8424968,1959,0,1
3951,8426968,1961,0,1
3952,8428968,1967,0,1
3953,8430968,1983,0,1
3954,8432968,1993,0,1
3955,8434968,2005,0,1
3956,8436968,2018,0,1
3957,8438968,2027,0,1
3958,8440968,2015,0,1
3959,8442968,2022,1,1
3960,8444968,2018,0,1
3961,8446968,2003,0,1
3962,8448968,1994,0,1
3963,8450968,1993,0,1
3964,8452968,1993,0,1
3965,8454968,1993,0,1
3966,8456968,2002,0,1
3967,8458968,2011,0,1
3968,8460968,2008,0,1
3969,8462969,1991,1,1
3970,8464968,2002,0,1
3971,8466968,1992,0,1
3972,8468968,2001,0,1
3973,8470968,2007,0,1
3974,8472968,2011,0,1
3975,8474968,2001,0,1
3976,8476968,2005,0,1
3977,8478968,2003,0,1
3978,8480968,2006,0,1
3979,8482968,1982,1,1
3980,8484968,1974,0,1
3981,8486968,1976,0,1
3982,8488968,1979,0,1
3983,8490968,1990,0,1
3984,8492968,1993,0,1
3985,8494968,2003,0,1
3986,8496968,2013,0,1
3987,8498968,2013,0,1
3988,8500968,2011,0,1
3989,8502969,1967,1,1
3990,8504968,1957,0,1
3991,8506968,1965,0,1
3992,8508968,1971,0,1
3993,8510968,1973,0,1
3994,8512968,1998,0,1
3995,8514968,2011,0,1
3996,8516968,2008,0,1
3997,8518968,2019,0,1
3998,8520968,2009,0,1
3999,8522968,1989,1,1
4000,8524968,1988,0,1
4001,8526968,1981,0,1
4002,8528968,1979,0,1
4003,8530968,1992,0,1
4004,8532968,1995,0,1
4005,8534968,2007,0,1
4006,8536968,2007,0,1
4007,8538968,2010,0,1
4008,8540968,2004,1,1
4009,8542969,1990,1,1
4010,8544968,1978,0,1
4011,8546968,1973,0,1
4012,8548968,1976,0,1
4013,8550968,1983,0,1
4014,8552968,1997,0,1
4015,8554968,2008,0,1
4016,8556968,2013,0,1
4017,8558968,2013,0,1
4018,8560968,2013,1,1
4019,8562968,1973,1,1
4020,8564968,1983,0,1
4021,8566968,1977,0,1
4022,8568968,1977,0,1
4023,8570968,2005,0,1
4024,8572968,2007,0,1
4025,8574968,2007,0,1
4026,8576968,2005,0,1
4027,8578968,2012,0,1
4028,8580968,2007,1,1
4029,8582969,1991,1,1
4030,8584968,1965,0,1
4031,8586968,1957,0,1
4032,8588968,1962,0,1
4033,8590968,1967,0,1
4034,8592968,1990,0,1
4035,8594968,2003,0,1
4036,8596968,2021,0,1
4037,8598968,2024,0,1
4038,8600968,2029,1,1
4039,8602968,2018,1,1
4040,8604968,2127,0,1
4041,8606968,2169,0,1
4042,8608968,2157,0,1
4043,8610968,2119,0,1
4044,8612968,2069,0,1
4045,8614968,2012,0,1
4046,8616968,1984,0,1
4047,8618968,1989,0,1
4048,8620968,1968,1,1
4049,8622968,1941,1,1
4050,8624968,1802,0,1
4051,8626968,1737,0,1
4052,8628968,1771,0,1
4053,8630968,1849,0,1
4054,8632968,1937,0,1
4055,8634968,1997,0,1
4056,8636968,2040,0,1
4057,8638968,2068,0,1
4058,8640968,2054,1,1
4059,8642968,1995,1,1
4060,8644968,1948,0,1
4061,8646968,1926,0,1
4062,8648968,1938,0,1
4063,8650968,1949,0,1
4064,8652968,1977,0,1
4065,8654968,1996,0,1
4066,8656968,2024,0,1
4067,8658968,2023,0,1
4068,8660968,2008,1,1
4069,8662968,2009,1,1
4070,8664968,1967,0,1
4071,8666968,1974,0,1
4072,8668968,1973,0,1
4073,8670968,1975,0,1
4074,8672968,1995,0,1
4075,8674968,2003,0,1
4076,8676968,2011,0,1
4077,8678968,2012,0,1
4078,8680968,2014,1,1
4079,8682968,1988,1,1
4080,8684968,1975,0,1
4081,8686968,1980,0,1
4082,8688968,1991,0,1
4083,8690968,1992,0,1
4084,8692968,1995,0,1
4085,8694968,2009,0,1
4086,8696968,2006,0,1
4087,8698968,2011,0,1
4088,8700968,1993,1,1
4089,8702968,1977,1,1
4090,8704968,1977,0,1
4091,8706968,1973,0,1
4092,8708968,1983,0,1
4093,8710968,1997,0,1
4094,8712968,2007,0,1
4095,8714968,2006,0,1
4096,8716968,2011,0,1
4097,8718968,2021,0,1
4098,8720968,1993,1,1
4099,8722968,1995,1,1
4100,8724968,1991,0,1
4101,8726968,1979,0,1
4102,8728968,1981,0,1
4103,8730968,1990,0,1
4104,8732968,1995,0,1
4105,8734968,2008,0,1
4106,8736968,2012,0,1
4107,8738968,2009,0,1
4108,8740968,2011,1,1
4109,8742968,1992,1,1
4110,8744968,1980,0,1
4111,8746968,1995,0,1
4112,8748968,1977,0,1
4113,8750968,2003,0,1
4114,8752968,1999,0,1
4115,8754968,2007,0,1
4116,8756968,2011,0,1
4117,8758968,2004,0,1
4118,8760968,1995,1,1
4119,8762968,1995,1,1
4120,8764968,1980,0,1
4121,8766968,1991,0,1
4122,8768968,1993,0,1
4123,8770968,1991,0,1
4124,8772968,1999,0,1
4125,8774968,2009,0,1
4126,8776968,2021,0,1
4127,8778968,2011,0,1
4128,8780968,1991,1,1
4129,8782968,1997,1,1
4130,8784968,1991,0,1
4131,8786968,2009,0,1
4132,8788968,1989,0,1
4133,8790968,1991,0,1
4134,8792968,2002,0,1
4135,8794968,2007,0,1
4136,8796968,2019,0,1
4137,8798968,2008,0,1
4138,8800968,2008,1,1
4139,8802968,1992,1,1
4140,8804968,1977,0,1
4141,8806968,1983,0,1
4142,8808968,1981,0,1
4143,8810968,1982,0,1
4144,8812968,1997,0,1
4145,8814968,2007,0,1
4146,8816968,2023,0,1
4147,8818968,2021,0,1
4148,8820968,1992,1,1
4149,8822968,1991,1,1
4150,8824968,1989,0,1
4151,8826968,1993,0,1
4152,8828968,1983,0,1
4153,8830968,1991,0,1
4154,8832968,1997,0,1
4155,8834968,2002,0,1
4156,8836968,2021,0,1
4157,8838968,2015,0,1
4158,8840968,2021,1,1
4159,8842968,2023,1,1
4160,8844968,1999,0,1
4161,8846968,2001,0,1
4162,8848968,1995,0,1
4163,8850968,1995,0,1
4164,8852968,1992,0,1
4165,8854968,2003,0,1
4166,8856968,2025,0,1
4167,8858968,2019,0,1
4168,8860968,1983,1,1
4169,8862968,1967,0,1
4170,8864968,1960,0,1
4171,8866968,1991,0,1
4172,8868968,1979,0,1
4173,8870968,1993,0,1
4174,8872968,2003,0,1
4175,8874968,2008,0,1
4176,8876968,2023,0,1
4177,8878968,2021,0,1
4178,8880968,2007,1,1
4179,8882968,1983,0,1
4180,8884968,1977,0,1
4181,8886968,1989,0,1
4182,8888968,1991,0,1
4183,8890968,1998,0,1
4184,8892968,2015,0,1
4185,8894968,2013,0,1
4186,8896968,2023,0,1
4187,8898968,2021,0,1
4188,8900968,1996,1,1
4189,8902968,1977,0,1
4190,8904968,1971,0,1
4191,8906968,1991,0,1
4192,8908968,1989,0,1
4193,8910968,1983,0,1
4194,8912968,1995,0,1
4195,8914968,2009,0,1
4196,8916968,2023,0,1
4197,8918968,2012,0,1
4198,8920968,2003,1,1
4199,8922968,2001,0,1
4200,8924968,1993,0,1
4201,8926968,2003,0,1
4202,8928968,2005,0,1
4203,8930968,1982,0,1
4204,8932968,2005,0,1
4205,8934968,2004,0,1
4206,8936968,2013,0,1
4207,8938968,2009,0,1
4208,8940968,1998,1,1
4209,8942968,2013,0,1
4210,8944968,2019,0,1
4211,8946968,2041,0,1
4212,8948968,2025,0,1
4213,8950968,2008,0,1
4214,8952968,2011,0,1
4215,8954968,2001,0,1
4216,8956968,2019,0,1
4217,8958968,2003,0,1
4218,8960968,1996,1,1
4219,8962968,1976,0,1
4220,8964968,1965,0,1
4221,8966968,1977,0,1
4222,8968968,1979,0,1
4223,8970968,1983,0,1
4224,8972968,2005,0,1
4225,8974968,2014,0,1
4226,8976968,2028,0,1
4227,8978968,2008,0,1
4228,8980968,1978,1,1
4229,8982968,1959,0,1
4230,8984968,1949,0,1
4231,8986968,1963,0,1
4232,8988968,1971,0,1
4233,8990968,1980,0,1
4234,8992968,2004,0,1
4235,8994968,2019,0,1
4236,8996968,2023,0,1
4237,8998968,2015,0,1
4238,9000968,2007,1,1
4239,9002968,1983,0,1
4240,9004968,1967,0,1
4241,9006968,1962,0,1
4242,9008968,1979,0,1
4243,9010968,1990,0,1
4244,9012968,1997,0,1
4245,9014968,2012,0,1
4246,9016968,2012,0,1
4247,9018968,2022,0,1
4248,9020968,1999,1,1
4249,9022968,1967,0,1
4250,9024968,1959,0,1
4251,9026968,1957,0,1
4252,9028968,1977,0,1
4253,9030968,1990,0,1
4254,9032968,2009,0,1
4255,9034968,2019,0,1
4256,9036968,2019,0,1
4257,9038968,2023,0,1
4258,9040968,1995,1,1
4259,9042968,1965,0,1
4260,9044968,1957,0,1
4261,9046968,1968,0,1
4262,9048968,1967,0,1
4263,9050968,1977,0,1
4264,9052968,2003,0,1
4265,9054968,2013,0,1
4266,9056968,2013,0,1
4267,9058968,2015,0,1
4268,9060968,1989,1,1
4269,9062968,1979,0,1
4270,9064968,1967,0,1
4271,9066968,1976,0,1
4272,9068968,1981,0,1
4273,9070968,1999,0,1
4274,9072968,2005,0,1
4275,9074968,2006,0,1
4276,9076968,2011,0,1
4277,9078968,2017,0,1
4278,9080968,1995,1,1
4279,9082968,1989,0,1
4280,9084968,1993,0,1
4281,9086968,1993,0,1
4282,9088968,2006,0,1
4283,9090968,2008,0,1
4284,9092968,2005,0,1
4285,9094968,2008,0,1
4286,9096968,2005,0,1
4287,9098968,2008,0,1
4288,9100968,1980,1,1
4289,9102968,1965,0,1
4290,9104968,1951,0,1
4291,9106968,1960,0,1
4292,9108968,1974,0,1
4293,9110968,1991,0,1
4294,9112968,2003,0,1
4295,9114968,2019,0,1
4296,9116968,2019,0,1
4297,9118968,2013,1,1
4298,9120968,1992,1,1
4299,9122968,1983,0,1
4300,9124968,1976,0,1
4301,9126968,1979,0,1
4302,9128968,1983,0,1
4303,9130968,1996,0,1
4304,9132968,1999,0,1
4305,9134968,2009,0,1
4306,9136968,2014,0,1
4307,9138968,2017,1,1
4308,9140968,2001,1,1
4309,9142968,1981,0,1
4310,9144968,1963,0,1
4311,9146968,1972,0,1
4312,9148968,1981,0,1
4313,9150968,1993,0,1
4314,9152968,1999,0,1
4315,9154968,2019,0,1
4316,9156968,2021,0,1
4317,9158968,2008,1,1
4318,9160968,1980,1,1
4319,9162968,1999,0,1
4320,9164968,1996,0,1
4321,9166968,1991,0,1
4322,9168968,1996,0,1
4323,9170968,2003,0,1
4324,9172968,2003,0,1
4325,9174968,2008,0,1
4326,9176968,2010,0,1
4327,9178968,2021,1,1
4328,9180968,1975,1,1
4329,9182968,1946,0,1
4330,9184968,1944,0,1
4331,9186968,1949,0,1
4332,9188968,1973,0,1
4333,9190968,1991,0,1
4334,9192968,2009,0,1
4335,9194968,2029,0,1
4336,9196968,2023,0,1
4337,9198968,2013,1,1
4338,9200968,2009,1,1
4339,9202968,1971,0,1
4340,9204968,1955,0,1
4341,9206968,1967,0,1
4342,9208968,1982,0,1
4343,9210968,1983,0,1
4344,9212968,2006,0,1
4345,9214968,2015,0,1
4346,9216968,2024,0,1
4347,9218968,2010,1,1
4348,9220968,1999,1,1
4349,9222968,1981,0,1
4350,9224968,1993,0,1
4351,9226968,1981,0,1
4352,9228968,1995,0,1
4353,9230968,1992,0,1
4354,9232968,2005,0,1
4355,9234968,2024,0,1
4356,9236968,2011,0,1
4357,9238968,2007,1,1
4358,9240968,1983,1,1
4359,9242968,1993,0,1
4360,9244968,2003,0,1
4361,9246968,1994,0,1
4362,9248968,1993,0,1
4363,9250968,1999,0,1
4364,9252968,2004,0,1
4365,9254968,2020,0,1
4366,9256968,2011,0,1
4367,9258968,2009,1,1
4368,9260968,1995,1,1
4369,9262968,1990,0,1
4370,9264968,1991,0,1
4371,9266968,1983,0,1
4372,9268968,1991,0,1
4373,9270968,1997,0,1
4374,9272968,2005,0,1
4375,9274968,2022,0,1
4376,9276968,2012,0,1
4377,9278968,2006,1,1
4378,9280968,2003,1,1
4379,9282968,2007,0,1
4380,9284968,2009,0,1
4381,9286968,1995,0,1
4382,9288968,2005,0,1
4383,9290968,1998,0,1
4384,9292968,2005,0,1
4385,9294968,2022,0,1
4386,9296968,2003,0,1
4387,9298968,2005,1,1
4388,9300968,2034,1,1
4389,9302968,2065,0,1
4390,9304968,2069,0,1
4391,9306968,2042,0,1
4392,9308968,2020,0,1
4393,9310968,2005,0,1
4394,9312968,2001,0,1
4395,9314968,2013,0,1
4396,9316968,1997,0,1
4397,9318968,1982,1,1
4398,9320968,1967,1,1
4399,9322968,1963,0,1
4400,9324968,1959,0,1
4401,9326968,1967,0,1
4402,9328968,1993,0,1
4403,9330968,2003,0,1
4404,9332968,2019,0,1
4405,9334968,2028,0,1
4406,9336968,2011,0,1
4407,9338968,1999,1,1
4408,9340968,1956,1,1
4409,9342968,1949,0,1
4410,9344968,1959,0,1
4411,9346968,1963,0,1
4412,9348968,1981,0,1
4413,9350968,1997,0,1
4414,9352968,2019,0,1
4415,9354968,2031,0,1
4416,9356968,2024,0,1
4417,9358968,1996,1,1
4418,9360968,1981,1,1
4419,9362968,1949,0,1
4420,9364968,1945,0,1
4421,9366968,1957,0,1
4422,9368968,1962,0,1
4423,9370968,1995,0,1
4424,9372968,2010,0,1
4425,9374968,2039,0,1
4426,9376968,2029,0,1
4427,9378968,2029,1,1
4428,9380968,2108,1,1
4429,9382968,2262,0,1
4430,9384968,2301,0,1
4431,9386968,2233,0,1
4432,9388968,2149,0,1
4433,9390968,2053,0,1
4434,9392968,1995,0,1
4435,9394968,1971,0,1
4436,9396968,1949,0,1
4437,9398968,1949,1,1
4438,9400968,1891,1,1
4439,9402968,1767,0,1
4440,9404968,1762,0,1
4441,9406968,1799,0,1
4442,9408968,1891,0,1
4443,9410968,1960,0,1
4444,9412968,2024,0,1
4445,9414968,2071,0,1
4446,9416968,2068,0,1
4447,9418968,2037,1,1
4448,9420968,2024,1,1
4449,9422968,1996,0,1
4450,9424968,1993,0,1
4451,9426968,1961,0,1
4452,9428968,1963,0,1
4453,9430968,1981,0,1
4454,9432968,1995,0,1
4455,9434968,2007,0,1
4456,9436968,2018,0,1
4457,9438968,2021,1,1
4458,9440968,1998,0,1
4459,9442968,1979,0,1
4460,9444968,1973,0,1
4461,9446968,1981,0,1
4462,9448968,1989,0,1
4463,9450968,2001,0,1
4464,9452968,2005,0,1
4465,9454968,2011,0,1
4466,9456968,2025,0,1
4467,9458968,2009,1,1
4468,9460968,1989,1,1
4469,9462968,1973,0,1
4470,9464968,1967,0,1
4471,9466968,1989,0,1
4472,9468968,1983,0,1
4473,9470968,1993,0,1
4474,9472968,2012,0,1
4475,9474968,2013,0,1
4476,9476968,2021,0,1
4477,9478968,2024,1,1
4478,9480968,1995,0,1
4479,9482968,1981,0,1
4480,9484968,1977,0,1
4481,9486968,1991,0,1
4482,9488968,1997,0,1
4483,9490968,2003,0,1
4484,9492968,2008,0,1
4485,9494968,2011,0,1
4486,9496968,2011,0,1
4487,9498968,2001,1,1
4488,9500968,1963,0,1
4489,9502968,1940,0,1
4490,9504968,1949,0,1
4491,9506968,1967,0,1
4492,9508968,1980,0,1
4493,9510968,1995,0,1
4494,9512968,2013,0,1
4495,9514968,2031,0,1
4496,9516968,2027,0,1
4497,9518968,1991,1,1
4498,9520968,1993,0,1
4499,9522968,1975,0,1
4500,9524968,1975,0,1
4501,9526968,1982,0,1
4502,9528968,1983,0,1
4503,9530968,2005,0,1
4504,9532968,2007,0,1
4505,9534968,2020,0,1
4506,9536968,2015,0,1
4507,9538968,1988,1,1
4508,9540968,1973,0,1
4509,9542968,1965,0,1
4510,9544968,1956,0,1
4511,9546968,1967,0,1
4512,9548968,1988,0,1
4513,9550968,1993,0,1
4514,9552968,2021,0,1
4515,9554968,2021,0,1
4516,9556968,2013,0,1
4517,9558968,1995,1,1
4518,9560968,1977,0,1
4519,9562968,1967,0,1
4520,9564968,1961,0,1
4521,9566968,1978,0,1
4522,9568968,1997,0,1
4523,9570968,1995,0,1
4524,9572968,2008,0,1
4525,9574968,2014,0,1
4526,9576968,2019,0,1
4527,9578968,1990,1,1
4528,9580968,1977,0,1
4529,9582968,1976,0,1
4530,9584968,1983,0,1
4531,9586968,1983,0,1
4532,9588968,1998,0,1
4533,9590968,2008,0,1
4534,9592968,2011,0,1
4535,9594968,2021,0,1
4536,9596968,2015,0,1
4537,9598968,1977,1,1
4538,9600968,1967,0,1
4539,9602968,1975,0,1
4540,9604968,1981,0,1
4541,9606968,1983,0,1
4542,9608968,2003,0,1
4543,9610968,2007,0,1
4544,9612968,2007,0,1
4545,9614968,2006,0,1
4546,9616968,2011,0,1
4547,9618968,1993,1,1
4548,9620968,1978,0,1
4549,9622968,1979,0,1
4550,9624968,1973,0,1
4551,9626968,1981,0,1
4552,9628968,1993,0,1
4553,9630968,2005,0,1
4554,9632968,2011,0,1
4555,9634968,2019,0,1
4556,9636968,2012,0,1
4557,9638968,1961,1,1
4558,9640968,1951,0,1
4559,9642968,1947,0,1
4560,9644968,1965,0,1
4561,9646968,1977,0,1
4562,9648968,1997,0,1
4563,9650968,1885,0,1
4564,9652968,2021,0,1
4565,9654968,2026,0,1
4566,9656968,2025,1,1
4567,9658968,2001,1,1
4568,9660968,1973,0,1
4569,9662968,1963,0,1
4570,9664968,1968,0,1
4571,9666968,1991,0,1
4572,9668968,1989,0,1
4573,9670968,2005,0,1
4574,9672968,2009,0,1
4575,9674968,2020,0,1
4576,9676968,2007,0,1
4577,9678968,1996,1,1
4578,9680968,1950,0,1
4579,9682968,1939,0,1
4580,9684968,1948,0,1
4581,9686968,1965,0,1
4582,9688968,1991,0,1
4583,9690968,1998,0,1
4584,9692968,2011,0,1
4585,9694968,2017,0,1
4586,9696968,2021,1,1
4587,9698968,1992,1,1
4588,9700968,1966,0,1
4589,9702968,1956,0,1
4590,9704968,1967,0,1
4591,9706968,1965,0,1
4592,9708968,1978,0,1
4593,9710968,2002,0,1
4594,9712968,2020,0,1
4595,9714968,2025,0,1
4596,9716968,2009,1,1
4597,9718968,1996,1,1
4598,9720968,1996,0,1
4599,9722968,1975,0,1
4600,9724968,1983,0,1
4601,9726968,1983,0,1
4602,9728968,1997,0,1
4603,9730968,2005,0,1
4604,9732968,2021,0,1
4605,9734968,2014,0,1
4606,9736968,2002,1,1
4607,9738968,1982,1,1
4608,9740968,1976,0,1
4609,9742968,1972,0,1
4610,9744968,1975,0,1
4611,9746968,1993,0,1
4612,9748968,2002,0,1
4613,9750968,2007,0,1
4614,9752968,2013,0,1
4615,9754968,2019,0,1
4616,9756968,2003,1,1
4617,9758968,1993,1,1
4618,9760968,1967,0,1
4619,9762968,1960,0,1
4620,9764968,1971,0,1
4621,9766968,1989,0,1
4622,9768968,1999,0,1
4623,9770968,2011,0,1
4624,9772968,2013,0,1
4625,9774968,2013,0,1
4626,9776968,2019,1,1
4627,9778968,1997,1,1
4628,9780968,1988,0,1
4629,9782968,1991,0,1
4630,9784968,1996,0,1
4631,9786968,2003,0,1
4632,9788968,1995,0,1
4633,9790968,2005,0,1
4634,9792968,2011,0,1
4635,9794968,2028,0,1
4636,9796968,2005,1,1
4637,9798968,1979,1,1
4638,9800968,1977,0,1
4639,9802968,1975,0,1
4640,9804968,1981,0,1
4641,9806968,1981,0,1
4642,9808968,2008,0,1
4643,9810968,2004,0,1
4644,9812968,2018,0,1
4645,9814968,2026,0,1
4646,9816968,2009,1,1
4647,9818968,2003,1,1
4648,9820968,1963,0,1
4649,9822968,1951,0,1
4650,9824968,1976,0,1
4651,9826968,1980,0,1
4652,9828968,1982,0,1
4653,9830968,1995,0,1
4654,9832968,2019,0,1
4655,9834968,2026,0,1
4656,9836968,2025,1,1
4657,9838968,1982,1,1
4658,9840968,1971,0,1
4659,9842968,1963,0,1
4660,9844968,1982,0,1
4661,9846968,1979,0,1
4662,9848968,2002,0,1
4663,9850968,2005,0,1
4664,9852968,2021,0,1
4665,9854968,2039,0,1
4666,9856968,2015,1,1
4667,9858968,1995,1,1
4668,9860968,1977,0,1
4669,9862968,1965,0,1
4670,9864968,1988,0,1
4671,9866968,1979,0,1
4672,9868968,1998,0,1
4673,9870968,2011,0,1
4674,9872968,2015,0,1
4675,9874968,2024,0,1
4676,9876968,2008,1,1
4677,9878968,2005,1,1
4678,9880968,1970,0,1
4679,9882968,1966,0,1
4680,9884968,1983,0,1
4681,9886968,1993,0,1
4682,9888968,1994,0,1
4683,9890968,2008,0,1
4684,9892968,2019,0,1
4685,9894968,2029,0,1
4686,9896968,1997,1,1
4687,9898968,1999,1,1
4688,9900968,1971,0,1
4689,9902968,1955,0,1
4690,9904968,1977,0,1
4691,9906968,1981,0,1
4692,9908968,1993,0,1
4693,9910968,2008,0,1
4694,9912968,2023,0,1
4695,9914968,2031,0,1
4696,9916968,2003,1,1
4697,9918968,2011,1,1
4698,9920968,2005,0,1
4699,9922968,2003,0,1
4700,9924968,2009,0,1
4701,9926968,1997,0,1
4702,9928968,2005,0,1
4703,9930968,2007,0,1
4704,9932968,2005,0,1
4705,9934968,2027,0,1
4706,9936968,1992,1,1
4707,9938968,1973,1,1
4708,9940968,1977,0,1
4709,9942968,1983,0,1
4710,9944968,1998,0,1
4711,9946968,2002,0,1
4712,9948968,2008,0,1
4713,9950968,2011,0,1
4714,9952968,2019,0,1
4715,9954968,2020,0,1
4716,9956968,1975,1,1
4717,9958968,1959,1,1
4718,9960968,1955,0,1
4719,9962968,1955,0,1
4720,9964968,1976,0,1
4721,9966968,1983,0,1
4722,9968968,2006,0,1
4723,9970968,2014,0,1
4724,9972968,2025,0,1
4725,9974968,2036,0,1
4726,9976968,2019,1,1
4727,9978968,2042,1,1
4728,9980968,2053,0,1
4729,9982968,2036,0,1
4730,9984968,2026,0,1
4731,9986968,2013,0,1
4732,9988968,1997,0,1
4733,9990968,1997,0,1
4734,9992968,1996,0,1
4735,9994968,2007,0,1
4736,9996968,1988,1,1
4737,9998968,1970,1,1
4738,10000968,1959,0,1
4739,10002968,1963,0,1
4740,10004968,1965,0,1
4741,10006968,1993,0,1
4742,10008968,2001,0,1
4743,10010968,2011,0,1
4744,10012968,2013,0,1
4745,10014968,2017,0,1
4746,10016968,2011,1,1
4747,10018968,1998,0,1
4748,10020968,1989,0,1
4749,10022968,1983,0,1
4750,10024968,1976,0,1
4751,10026968,1991,0,1
4752,10028968,1997,0,1
4753,10030968,2007,0,1
4754,10032968,2015,0,1
4755,10034968,2008,0,1
4756,10036968,2003,1,1
4757,10038968,1989,0,1
4758,10040968,1963,0,1
4759,10042968,1958,0,1
4760,10044968,1974,0,1
4761,10046968,1979,0,1
4762,10048968,1997,0,1
4763,10050968,2005,0,1
4764,10052968,2014,0,1
4765,10054968,2017,0,1
4766,10056968,2009,1,1
4767,10058968,1996,0,1
4768,10060968,1983,0,1
4769,10062968,1981,0,1
4770,10064968,1989,0,1
4771,10066968,1981,0,1
4772,10068968,1992,0,1
4773,10070968,2007,0,1
4774,10072968,2007,0,1
4775,10074968,2019,0,1
4776,10076968,1981,1,1
4777,10078968,1965,0,1
4778,10080968,1952,0,1
4779,10082968,1959,0,1
4780,10084968,1980,0,1
4781,10086968,1993,0,1
4782,10088968,1995,0,1
4783,10090968,2019,0,1
4784,10092968,2021,0,1
4785,10094968,2020,0,1
4786,10096968,1999,1,1
4787,10098968,1979,0,1
4788,10100968,1971,0,1
4789,10102968,1965,0,1
4790,10104968,1973,0,1
4791,10106968,1991,0,1
4792,10108968,1996,0,1
4793,10110968,2012,0,1
4794,10112968,2011,0,1
4795,10114968,2015,0,1
4796,10116968,1995,1,1
4797,10118968,1982,0,1
4798,10120968,1962,0,1
4799,10122968,1949,0,1
4800,10124968,1967,0,1
4801,10126968,1967,0,1
4802,10128968,1995,0,1
4803,10130968,2014,0,1
4804,10132968,2021,0,1
4805,10134968,2021,0,1
4806,10136968,2013,1,1
4807,10138968,1992,0,1
4808,10140968,1983,0,1
4809,10142968,1971,0,1
4810,10144968,1989,0,1
4811,10146968,1995,0,1
4812,10148968,1997,0,1
4813,10150968,2012,0,1
4814,10152968,2011,0,1
4815,10154968,2022,0,1
4816,10156968,1977,1,1
4817,10158968,1933,1,1
4818,10160968,1902,0,1
4819,10162968,1909,0,1
4820,10164968,1940,0,1
4821,10166968,1964,0,1
4822,10168968,2003,0,1
4823,10170968,2028,0,1
4824,10172968,2045,0,1
4825,10174968,2053,0,1
4826,10176968,2039,1,1
4827,10178968,2185,0,1
4828,10180968,2287,0,1
4829,10182968,2275,0,1
4830,10184968,2199,0,1
4831,10186968,2101,0,1
4832,10188968,2005,0,1
4833,10190968,1960,0,1
4834,10192968,1949,0,1
4835,10194968,1935,0,1
4836,10196968,1929,1,1
4837,10198968,1832,0,1
4838,10200968,1783,0,1
4839,10202968,1803,0,1
4840,10204968,1855,0,1
4841,10206968,1941,0,1
4842,10208968,2007,0,1
4843,10210968,2055,0,1
4844,10212968,2069,0,1
4845,10214968,2057,0,1
4846,10216968,2014,1,1
4847,10218968,1980,0,1
4848,10220968,1952,0,1
4849,10222968,1947,0,1
4850,10224968,1957,0,1
4851,10226968,1975,0,1
4852,10228968,1997,0,1
4853,10230968,2007,0,1
4854,10232968,2028,0,1
4855,10234968,2026,0,1
4856,10236968,2013,1,1
4857,10238968,2042,0,1
4858,10240968,2057,0,1
4859,10242968,2069,0,1
4860,10244968,2035,0,1
4861,10246968,2012,0,1
4862,10248968,2009,0,1
4863,10250968,2006,0,1
4864,10252968,2019,0,1
4865,10254968,1997,0,1
4866,10256968,1966,1,1
4867,10258968,1962,0,1
4868,10260968,1959,0,1
4869,10262968,1982,0,1
4870,10264968,1975,0,1
4871,10266968,1992,0,1
4872,10268968,2005,0,1
4873,10270968,2013,0,1
4874,10272968,2032,0,1
4875,10274968,2011,1,1
4876,10276968,1990,1,1
4877,10278968,1975,0,1
4878,10280968,1975,0,1
4879,10282968,1989,0,1
4880,10284968,1983,0,1
4881,10286968,1991,0,1
4882,10288968,2007,0,1
4883,10290968,2020,0,1
4884,10292968,2028,0,1
4885,10294968,2015,1,1
4886,10296968,1997,1,1
4887,10298968,1979,0,1
4888,10300968,1971,0,1
4889,10302968,1981,0,1
4890,10304968,1981,0,1
4891,10306968,1995,0,1
4892,10308968,2002,0,1
4893,10310968,2017,0,1
4894,10312968,2035,0,1
4895,10314968,2021,1,1
4896,10316968,1995,1,1
4897,10318968,1967,0,1
4898,10320968,1956,0,1
4899,10322968,1980,0,1
4900,10324968,1962,0,1
4901,10326968,1988,0,1
4902,10328968,1995,0,1
4903,10330968,2012,0,1
4904,10332968,2028,0,1
4905,10334968,2003,1,1
4906,10336968,1989,1,1
4907,10338968,1967,0,1
4908,10340968,1959,0,1
4909,10342968,1981,0,1
4910,10344968,1979,0,1
4911,10346968,1983,0,1
4912,10348968,2001,0,1
4913,10350968,2011,0,1
4914,10352968,2027,0,1
4915,10354968,2013,1,1
4916,10356968,1981,1,1
4917,10358968,1959,0,1
4918,10360968,1945,0,1
4919,10362968,1964,0,1
4920,10364968,1971,0,1
4921,10366968,1990,0,1
4922,10368968,2008,0,1
4923,10370968,2011,0,1
4924,10372968,2042,0,1
4925,10374968,2015,1,1
4926,10376968,1996,1,1
4927,10378968,1971,0,1
4928,10380968,1960,0,1
4929,10382968,1983,0,1
4930,10384968,1976,0,1
4931,10386968,1995,0,1
4932,10388968,2007,0,1
4933,10390968,2015,0,1
4934,10392968,2029,0,1
4935,10394968,2019,1,1
4936,10396968,1971,1,1
4937,10398968,1961,0,1
4938,10400968,1959,0,1
4939,10402968,1972,0,1
4940,10404968,1981,0,1
4941,10406968,1989,0,1
4942,10408968,2011,0,1
4943,10410968,2023,0,1
4944,10412968,2038,0,1
4945,10414968,2009,1,1
4946,10416968,1991,1,1
4947,10418968,1956,0,1
4948,10420968,1955,0,1
4949,10422968,1973,0,1
4950,10424968,1977,0,1
4951,10426968,1995,0,1
4952,10428968,2009,0,1
4953,10430968,2014,0,1
4954,10432968,2035,0,1
4955,10434968,1999,1,1
4956,10436968,1993,1,1
4957,10438968,1979,0,1
4958,10440968,1979,0,1
4959,10442968,1995,0,1
4960,10444968,1981,0,1
4961,10446968,1993,0,1
4962,10448968,1998,0,1
4963,10450968,2013,0,1
4964,10452968,2019,0,1
4965,10454968,2005,1,1
4966,10456968,1963,1,1
4967,10458968,1940,0,1
4968,10460968,1944,0,1
4969,10462968,1955,0,1
4970,10464968,1971,0,1
4971,10466968,2002,0,1
4972,10468968,2007,0,1
4973,10470968,2022,0,1
4974,10472968,2023,0,1
4975,10474968,2019,1,1
4976,10476968,1976,1,1
4977,10478968,1946,0,1
4978,10480968,1941,0,1
4979,10482968,1946,0,1
4980,10484968,1972,0,1
4981,10486968,2004,0,1
4982,10488968,2006,0,1
4983,10490968,2025,0,1
4984,10492968,2013,0,1
4985,10494968,2011,1,1
4986,10496968,1997,1,1
4987,10498968,1979,0,1
4988,10500968,1974,0,1
4989,10502968,1976,0,1
4990,10504968,1983,0,1
4991,10506968,1995,0,1
4992,10508968,2010,0,1
4993,10510968,2015,0,1
4994,10512968,2021,0,1
4995,10514968,2019,1,1
4996,10516968,2003,1,1
4997,10518968,1979,0,1
4998,10520968,1973,0,1
4999,10522968,1981,0,1
5000,10524968,1982,0,1
5001,10526968,1995,0,1
5002,10528968,2003,0,1
5003,10530968,2018,0,1
5004,10532968,2019,0,1
5005,10534968,2009,1,1
5006,10536968,1983,1,1
5007,10538968,1975,0,1
5008,10540968,1967,0,1
5009,10542968,1973,0,1
5010,10544968,1982,0,1
5011,10546968,1997,0,1
5012,10548968,2009,0,1
5013,10550968,2009,0,1
5014,10552968,2011,0,1
5015,10554968,2005,1,1
5016,10556968,2011,1,1
5017,10558968,2004,0,1
5018,10560968,1996,0,1
5019,10562968,1999,0,1
5020,10564968,1983,0,1
5021,10566968,2003,0,1
5022,10568968,2008,0,1
5023,10570968,2011,0,1
5024,10572968,2008,0,1
5025,10574968,1996,1,1
5026,10576968,1995,1,1
5027,10578968,1971,0,1
5028,10580968,1963,0,1
5029,10582968,1965,0,1
5030,10584968,1972,0,1
5031,10586968,1999,0,1
5032,10588968,2008,0,1
5033,10590968,2019,0,1
5034,10592968,2007,0,1
5035,10594968,1995,1,1
5036,10596968,1973,0,1
5037,10598968,1942,0,1
5038,10600968,1948,0,1
5039,10602968,1955,0,1
5040,10604968,1975,0,1
5041,10606968,2005,0,1
5042,10608968,2011,0,1
5043,10610968,2025,0,1
5044,10612968,2021,0,1
5045,10614968,2019,1,1
5046,10616968,2010,0,1
5047,10618968,1989,0,1
5048,10620968,1982,0,1
5049,10622968,1977,0,1
5050,10624968,1991,0,1
5051,10626968,1995,0,1
5052,10628968,2005,0,1
5053,10630968,2007,0,1
5054,10632968,2012,0,1
5055,10634968,2003,1,1
5056,10636968,2004,0,1
5057,10638968,1989,0,1
5058,10640968,1979,0,1
5059,10642968,1981,0,1
5060,10644968,1990,0,1
5061,10646968,2003,0,1
5062,10648968,2011,0,1
5063,10650968,2005,0,1
5064,10652968,2011,0,1
5065,10654968,1999,1,1
5066,10656968,2015,0,1
5067,10658968,2006,0,1
5068,10660968,1998,0,1
5069,10662968,1999,0,1
5070,10664968,1997,0,1
5071,10666968,1995,0,1
5072,10668968,1998,0,1
5073,10670968,2007,0,1
5074,10672968,2005,0,1
5075,10674968,1998,1,1
5076,10676968,2001,0,1
5077,10678968,1982,0,1
5078,10680968,1977,0,1
5079,10682968,1983,0,1
5080,10684968,1988,0,1
5081,10686968,2001,0,1
5082,10688968,2007,0,1
5083,10690968,2015,0,1
5084,10692968,2015,0,1
5085,10694968,2004,1,1
5086,10696968,1971,0,1
5087,10698968,1947,0,1
5088,10700968,1951,0,1
5089,10702968,1971,0,1
5090,10704968,1981,0,1
5091,10706968,1995,0,1
5092,10708968,2013,0,1
5093,10710968,2019,0,1
5094,10712968,2028,0,1
5095,10714968,1983,1,1
5096,10716968,1973,0,1
5097,10718968,1956,0,1
5098,10720968,1962,0,1
5099,10722968,1975,0,1
5100,10724968,1981,0,1
5101,10726968,1994,0,1
5102,10728968,2013,0,1
5103,10730968,2021,0,1
5104,10732968,2014,0,1
5105,10734968,1995,1,1
5106,10736968,1983,0,1
5107,10738968,1971,0,1
5108,10740968,1965,0,1
5109,10742968,1983,0,1
5110,10744968,1996,0,1
5111,10746968,1999,0,1
5112,10748968,2013,0,1
5113,10750968,2011,0,1
5114,10752968,2021,0,1
5115,10754968,1995,1,1
5116,10756968,1975,0,1
5117,10758968,1964,0,1
5118,10760968,1960,0,1
5119,10762968,1977,0,1
5120,10764968,1989,0,1
5121,10766968,2009,0,1
5122,10768968,2013,0,1
5123,10770968,2017,0,1
5124,10772968,2019,0,1
5125,10774968,1991,1,1
5126,10776968,1973,0,1
5127,10778968,1946,0,1
5128,10780968,1949,0,1
5129,10782968,1963,0,1
5130,10784968,1974,0,1
5131,10786968,1997,0,1
5132,10788968,2003,0,1
5133,10790968,2017,0,1
5134,10792968,2022,0,1
5135,10794968,1995,1,1
5136,10796968,1992,0,1
5137,10798968,1975,0,1
5138,10800968,1976,0,1
5139,10802968,2007,0,1
5140,10804968,1989,0,1
5141,10806968,2006,0,1
5142,10808968,2009,0,1
5143,10810968,2009,0,1
5144,10812968,2036,0,1
5145,10814968,1993,1,1
5146,10816968,1963,0,1
5147,10818968,1951,0,1
5148,10820968,1957,0,1
5149,10822968,1992,0,1
5150,10824968,1995,0,1
5151,10826968,2003,0,1
5152,10828968,2015,0,1
5153,10830968,2021,0,1
5154,10832968,2031,0,1
5155,10834968,2002,1,1
5156,10836968,1981,0,1
5157,10838968,1977,0,1
5158,10840968,1973,0,1
5159,10842968,1967,0,1
5160,10844968,1990,0,1
5161,10846968,2008,0,1
5162,10848968,2015,0,1
5163,10850968,2020,0,1
5164,10852968,2027,1,1
5165,10854968,1996,1,1
5166,10856968,1967,0,1
5167,10858968,1963,0,1
5168,10860968,1955,0,1
5169,10862968,1989,0,1
5170,10864968,1982,0,1
5171,10866968,1998,0,1
5172,10868968,2021,0,1
5173,10870968,2021,0,1
5174,10872968,2040,1,1
5175,10874968,1999,1,1
5176,10876968,1965,0,1
5177,10878968,1945,0,1
5178,10880968,1943,0,1
5179,10882968,1991,0,1
5180,10884968,1981,0,1
5181,10886968,1995,0,1
5182,10888968,2015,0,1
5183,10890968,2020,0,1
5184,10892968,2039,1,1
5185,10894968,1989,1,1
5186,10896968,1966,0,1
5187,10898968,1961,0,1
5188,10900968,1963,0,1
5189,10902968,1983,0,1
5190,10904968,1993,0,1
5191,10906968,2007,0,1
5192,10908968,2019,0,1
5193,10910968,2017,0,1
5194,10912968,2031,1,1
5195,10914968,1979,1,1
5196,10916968,1955,0,1
5197,10918968,1945,0,1
5198,10920968,1949,0,1
5199,10922968,1971,0,1
5200,10924968,1981,0,1
5201,10926968,2007,0,1
5202,10928968,2015,0,1
5203,10930968,2024,0,1
5204,10932968,2021,1,1
5205,10934968,1908,1,1
5206,10936968,1837,0,1
5207,10938968,1827,0,1
5208,10940968,1860,0,1
5209,10942968,1940,0,1
5210,10944968,1989,0,1
5211,10946968,2027,0,1
5212,10948968,2063,0,1
5213,10950968,2063,0,1
5214,10952968,2056,1,1
5215,10954968,2093,1,1
5216,10956968,2236,0,1
5217,10958968,2292,0,1
5218,10960968,2253,0,1
5219,10962968,2167,0,1
5220,10964968,2067,0,1
5221,10966968,1993,0,1
5222,10968968,1951,0,1
5223,10970968,1931,0,1
5224,10972968,1949,1,1
5225,10974968,1898,1,1
5226,10976968,1779,0,1
5227,10978968,1755,0,1
5228,10980968,1791,0,1
5229,10982968,1894,0,1
5230,10984968,1955,0,1
5231,10986968,2015,0,1
5232,10988968,2055,0,1
5233,10990968,2067,0,1
5234,10992968,2057,1,1
5235,10994968,2099,1,1
5236,10996968,2265,0,1
5237,10998968,2319,0,1
5238,11000968,2264,0,1
5239,11002968,2167,0,1
5240,11004968,2056,0,1
5241,11006968,1983,0,1
5242,11008968,1955,0,1
5243,11010968,1940,0,1
5244,11012968,1938,1,1
5245,11014968,1931,1,1
5246,11016968,1937,0,1
5247,11018968,1950,0,1
5248,11020968,1973,0,1
5249,11022968,1996,0,1
5250,11024968,2003,0,1
5251,11026968,2013,0,1
5252,11028968,2025,0,1
5253,11030968,2013,0,1
5254,11032968,1993,1,1
5255,11034968,1997,1,1
5256,11036968,1963,0,1
5257,11038968,1960,0,1
5258,11040968,1961,0,1
5259,11042968,1961,0,1
5260,11044968,1983,0,1
5261,11046968,2007,0,1
5262,11048968,2021,0,1
5263,11050968,2007,0,1
5264,11052968,1996,1,1
5265,11054968,2003,1,1
5266,11056968,1977,0,1
5267,11058968,1966,0,1
5268,11060968,1971,0,1
5269,11062968,1974,0,1
5270,11064968,1993,0,1
5271,11066968,2012,0,1
5272,11068968,2009,0,1
5273,11070968,2015,0,1
5274,11072968,2023,1,1
5275,11074968,1991,1,1
5276,11076968,1967,0,1
5277,11078968,1963,0,1
5278,11080968,1961,0,1
5279,11082968,1983,0,1
5280,11084968,2003,0,1
5281,11086968,2002,0,1
5282,11088968,2009,0,1
5283,11090968,2023,0,1
5284,11092968,2007,1,1
5285,11094968,1973,1,1
5286,11096968,1941,0,1
5287,11098968,1933,0,1
5288,11100968,1940,0,1
5289,11102968,1964,0,1
5290,11104968,1994,0,1
5291,11106968,2007,0,1
5292,11108968,2021,0,1
5293,11110968,2020,0,1
5294,11112968,2011,1,1
5295,11114968,2008,1,1
5296,11116968,1973,0,1
5297,11118968,1967,0,1
5298,11120968,1963,0,1
5299,11122968,1989,0,1
5300,11124968,1991,0,1
5301,11126968,2013,0,1
5302,11128968,2015,0,1
5303,11130968,2018,0,1
5304,11132968,2009,1,1
5305,11134968,1993,1,1
5306,11136968,1978,0,1
5307,11138968,1977,0,1
5308,11140968,1981,0,1
5309,11142968,1991,0,1
5310,11144968,2004,0,1
5311,11146968,2007,0,1
5312,11148968,2013,0,1
5313,11150968,2019,0,1
5314,11152968,1995,1,1
5315,11154968,1989,1,1
5316,11156968,1864,0,1
5317,11158968,1811,0,1
5318,11160968,1832,0,1
5319,11162968,1892,0,1
5320,11164968,1951,0,1
5321,11166968,2007,0,1
5322,11168968,2042,0,1
5323,11170968,2059,0,1
5324,11172969,2034,1,1
5325,11174968,2017,0,1
5326,11176968,1990,0,1
5327,11178968,1965,0,1
5328,11180968,1967,0,1
5329,11182968,1971,0,1
5330,11184968,1982,0,1
5331,11186968,2005,0,1
5332,11188968,2015,0,1
5333,11190968,2010,0,1
5334,11192968,1990,1,1
5335,11194968,1995,0,1
5336,11196968,1975,0,1
5337,11198968,1966,0,1
5338,11200968,1983,0,1
5339,11202968,1983,0,1
5340,11204968,2003,0,1
5341,11206968,2011,0,1
5342,11208968,2015,0,1
5343,11210968,2012,0,1
5344,11212969,1998,1,1
5345,11214968,1995,0,1
5346,11216968,1978,0,1
5347,11218968,1973,0,1
5348,11220968,1975,0,1
5349,11222968,1979,0,1
5350,11224968,1993,0,1
5351,11226968,2006,0,1
5352,11228968,1999,0,1
5353,11230968,2014,0,1
5354,11232968,1994,1,1
5355,11234968,1993,0,1
5356,11236968,1967,0,1
5357,11238968,1967,0,1
5358,11240968,1974,0,1
5359,11242968,1989,0,1
5360,11244968,1993,0,1
5361,11246968,2005,0,1
5362,11248968,2019,0,1
5363,11250968,2013,0,1
5364,11252969,1995,1,1
5365,11254968,1983,0,1
5366,11256968,1979,0,1
5367,11258968,1975,0,1
5368,11260968,1992,0,1
5369,11262968,1991,0,1
5370,11264968,2004,0,1
5371,11266968,2011,0,1
5372,11268968,2019,0,1
5373,11270968,2031,0,1
5374,11272968,2005,1,1
5375,11274968,1981,0,1
5376,11276968,1963,0,1
5377,11278968,1952,0,1
5378,11280968,1979,0,1
5379,11282968,1980,0,1
5380,11284968,2003,0,1
5381,11286968,2018,0,1
5382,11288968,2013,0,1
5383,11290968,2030,0,1
5384,11292969,2019,1,1
5385,11294968,1989,0,1
5386,11296968,1967,0,1
5387,11298968,1967,0,1
5388,11300968,1981,0,1
5389,11302968,1988,0,1
5390,11304968,1995,0,1
5391,11306968,2012,0,1
5392,11308968,2015,0,1
5393,11310968,2023,0,1
5394,11312968,2005,1,1
5395,11314968,1991,0,1
5396,11316968,1976,0,1
5397,11318968,1975,0,1
5398,11320968,2005,0,1
5399,11322968,1998,0,1
5400,11324968,1996,0,1
5401,11326968,2009,0,1
5402,11328968,2011,0,1
5403,11330968,2025,0,1
5404,11332969,2011,1,1
5405,11334968,1984,0,1
5406,11336968,1968,0,1
5407,11338968,1965,0,1
5408,11340968,1993,0,1
5409,11342968,1989,0,1
5410,11344968,1999,0,1
5411,11346968,2011,0,1
5412,11348968,2013,0,1
5413,11350968,2029,0,1
5414,11352968,2005,1,1
5415,11354968,1993,0,1
5416,11356968,1980,0,1
5417,11358968,1973,0,1
5418,11360968,1991,0,1
5419,11362968,1999,0,1
5420,11364968,2003,0,1
5421,11366968,2011,0,1
5422,11368968,2013,0,1
5423,11370968,2026,0,1
5424,11372969,2003,1,1
5425,11374968,1988,0,1
5426,11376968,1975,0,1
5427,11378968,1970,0,1
5428,11380968,1997,0,1
5429,11382968,1979,0,1
5430,11384968,1976,0,1
5431,11386968,2012,0,1
5432,11388968,2015,0,1
5433,11390968,2036,1,1
5434,11392968,2003,1,1
5435,11394968,1913,0,1
5436,11396968,1752,0,1
5437,11398968,1711,0,1
5438,11400968,1772,0,1
5439,11402968,1854,0,1
5440,11404968,1951,0,1
5441,11406968,2035,0,1
5442,11408968,2072,0,1
5443,11410968,2092,0,1
5444,11412969,2070,1,1
5445,11414968,2024,0,1
5446,11416968,1981,0,1
5447,11418968,1959,0,1
5448,11420968,1977,0,1
5449,11422968,1973,0,1
5450,11424968,1983,0,1
5451,11426968,1996,0,1
5452,11428968,2012,0,1
5453,11430968,2028,0,1
5454,11432968,2025,1,1
5455,11434968,2014,0,1
5456,11436968,2005,0,1
5457,11438968,2002,0,1
5458,11440968,2002,0,1
5459,11442968,1995,0,1
5460,11444968,1984,0,1
5461,11446968,2009,0,1
5462,11448968,2008,0,1
5463,11450968,2026,1,1
5464,11452969,2013,1,1
5465,11454968,1983,0,1
5466,11456968,1967,0,1
5467,11458968,1967,0,1
5468,11460968,1989,0,1
5469,11462968,1983,0,1
5470,11464968,2003,0,1
5471,11466968,2018,0,1
5472,11468968,2013,0,1
5473,11470968,2028,1,1
5474,11472968,1979,1,1
5475,11474968,1949,0,1
5476,11476968,1939,0,1
5477,11478968,1949,0,1
5478,11480968,1965,0,1
5479,11482968,1993,0,1
5480,11484968,1999,0,1
5481,11486968,2022,0,1
5482,11488968,2024,0,1
5483,11490968,2010,1,1
5484,11492969,1965,1,1
5485,11494968,1919,0,1
5486,11496968,1927,0,1
5487,11498968,1943,0,1
5488,11500968,1965,0,1
5489,11502968,1991,0,1
5490,11504968,2009,0,1
5491,11506968,2029,0,1
5492,11508968,2027,0,1
5493,11510968,2019,1,1
5494,11512968,1980,1,1
5495,11514968,1931,0,1
5496,11516968,1919,0,1
5497,11518968,1927,0,1
5498,11520968,1956,0,1
5499,11522968,1979,0,1
5500,11524968,2008,0,1
5501,11526968,2029,0,1
5502,11528968,2023,0,1
5503,11530968,2023,1,1
5504,11532969,1989,1,1
5505,11534968,1955,0,1
5506,11536968,1957,0,1
5507,11538968,1955,0,1
5508,11540968,1989,0,1
5509,11542968,1989,0,1
5510,11544968,2009,0,1
5511,11546968,2015,0,1
5512,11548968,2023,0,1
5513,11550968,2019,1,1
5514,11552968,1988,1,1
5515,11554968,1941,0,1
5516,11556968,1940,0,1
5517,11558968,1945,0,1
5518,11560968,1968,0,1
5519,11562968,1981,0,1
5520,11564968,2006,0,1
5521,11566968,2023,0,1
5522,11568968,2021,0,1
5523,11570968,2011,1,1
5524,11572969,1979,1,1
5525,11574968,1943,0,1
5526,11576968,1925,0,1
5527,11578968,1940,0,1
5528,11580968,1963,0,1
5529,11582968,1993,0,1
5530,11584968,2007,0,1
5531,11586968,2027,0,1
5532,11588968,2023,0,1
5533,11590968,2021,1,1
5534,11592968,1965,1,1
5535,11594968,1916,0,1
5536,11596968,1908,0,1
5537,11598968,1931,0,1
5538,11600968,1957,0,1
5539,11602968,1981,0,1
5540,11604968,2009,0,1
5541,11606968,2025,0,1
5542,11608968,2031,0,1
5543,11610968,2015,1,1
5544,11612969,1979,1,1
5545,11614968,1931,0,1
5546,11616968,1917,0,1
5547,11618968,1939,0,1
5548,11620968,1967,0,1
5549,11622968,1991,0,1
5550,11624968,2007,0,1
5551,11626968,2028,0,1
5552,11628968,2023,0,1
5553,11630968,2027,1,1
5554,11632968,1995,1,1
5555,11634968,1963,0,1
5556,11636968,1957,0,1
5557,11638968,1964,0,1
5558,11640968,1991,0,1
5559,11642968,1989,0,1
5560,11644968,2013,0,1
5561,11646968,2023,0,1
5562,11648968,2019,0,1
5563,11650968,2008,1,1
5564,11652969,1971,1,1
5565,11654968,1915,0,1
5566,11656968,1914,0,1
5567,11658968,1931,0,1
5568,11660968,1961,0,1
5569,11662968,1996,0,1
5570,11664968,2013,0,1
5571,11666968,2028,0,1
5572,11668968,2030,0,1
5573,11670968,2026,1,1
5574,11672968,2447,1,1
5575,11674968,2923,0,1
5576,11676968,2984,0,1
5577,11678968,2767,0,1
5578,11680968,2431,0,1
5579,11682968,2130,0,1
5580,11684968,1930,0,1
5581,11686968,1831,0,1
5582,11688968,1807,0,1
5583,11690968,1829,1,1
5584,11692969,1899,1,1
5585,11694968,1931,0,1
5586,11696968,1967,0,1
5587,11698968,2007,0,1
5588,11700968,2019,0,1
5589,11702968,2026,0,1
5590,11704968,2021,0,1
5591,11706968,2027,0,1
5592,11708968,2009,0,1
5593,11710968,2011,1,1
5594,11712968,1999,1,1
5595,11714968,2013,0,1
5596,11716968,2037,0,1
5597,11718968,2037,0,1
5598,11720968,2035,0,1
5599,11722968,2025,0,1
5600,11724968,2031,0,1
5601,11726968,2013,0,1
5602,11728968,2011,0,1
5603,11730968,2013,1,1
5604,11732969,2029,1,1
5605,11734968,2018,0,1
5606,11736968,2009,0,1
5607,11738968,1990,0,1
5608,11740968,1993,0,1
5609,11742968,1992,0,1
5610,11744968,1991,0,1
5611,11746968,1998,0,1
5612,11748968,1995,0,1
5613,11750968,1997,1,1
5614,11752968,1961,0,1
5615,11754968,1911,0,1
5616,11756968,1916,0,1
5617,11758968,1929,0,1
5618,11760968,1955,0,1
5619,11762968,1991,0,1
5620,11764968,2005,0,1
5621,11766968,2031,0,1
5622,11768968,2029,0,1
5623,11770968,2007,1,1
5624,11772969,1971,0,1
5625,11774968,1939,0,1
5626,11776968,1933,0,1
5627,11778968,1952,0,1
5628,11780968,1974,0,1
5629,11782968,1999,0,1
5630,11784968,2019,0,1
5631,11786968,2024,0,1
5632,11788968,2021,0,1
5633,11790968,2020,1,1
5634,11792968,1995,0,1
5635,11794968,1975,0,1
5636,11796968,1961,0,1
5637,11798968,1972,0,1
5638,11800968,1981,0,1
5639,11802968,1991,0,1
5640,11804968,2001,0,1
5641,11806968,2013,0,1
5642,11808968,2019,0,1
5643,11810968,1988,1,1
5644,11812969,1975,0,1
5645,11814968,1950,0,1
5646,11816968,1939,0,1
5647,11818968,1961,0,1
5648,11820968,1979,0,1
5649,11822968,2007,0,1
5650,11824968,2011,0,1
5651,11826968,2022,0,1
5652,11828968,2025,0,1
5653,11830968,2001,1,1
5654,11832968,1975,0,1
5655,11834968,1963,0,1
5656,11836968,1963,0,1
5657,11838968,1977,0,1
5658,11840968,2010,0,1
5659,11842968,1996,0,1
5660,11844968,2011,0,1
5661,11846968,2013,0,1
5662,11848968,2019,0,1
5663,11850968,2017,1,1
5664,11852969,1971,0,1
5665,11854968,1939,0,1
5666,11856968,1945,0,1
5667,11858968,1967,0,1
5668,11860968,1981,0,1
5669,11862968,1997,0,1
5670,11864968,2009,0,1
5671,11866968,2023,0,1
5672,11868968,2025,0,1
5673,11870968,2012,1,1
5674,11872968,1997,0,1
5675,11874968,1971,0,1
5676,11876968,1966,0,1
5677,11878968,1971,0,1
5678,11880968,1996,0,1
5679,11882968,1997,0,1
5680,11884968,2013,0,1
5681,11886968,2019,0,1
5682,11888968,2018,0,1
5683,11890968,2005,1,1
5684,11892969,1967,0,1
5685,11894968,1951,0,1
5686,11896968,1940,0,1
5687,11898968,1961,0,1
5688,11900968,1993,0,1
5689,11902968,2003,0,1
5690,11904968,2013,0,1
5691,11906968,2011,0,1
5692,11908968,2021,0,1
5693,11910968,2015,1,1
5694,11912968,1977,0,1
5695,11914968,1961,0,1
5696,11916968,1957,0,1
5697,11918968,1976,0,1
5698,11920968,1999,0,1
5699,11922968,2003,0,1
5700,11924968,2014,0,1
5701,11926968,2019,0,1
5702,11928968,2021,0,1
5703,11930968,2011,1,1
5704,11932969,1983,0,1
5705,11934968,1971,0,1
5706,11936968,1965,0,1
5707,11938968,1975,0,1
5708,11940968,1992,0,1
5709,11942968,2003,0,1
5710,11944968,2009,0,1
5711,11946968,2011,0,1
5712,11948968,2013,0,1
5713,11950968,2005,1,1
5714,11952968,1982,0,1
5715,11954968,1945,0,1
5716,11956968,1951,0,1
5717,11958968,1959,0,1
5718,11960968,1996,0,1
5719,11962968,1996,0,1
5720,11964968,2019,0,1
5721,11966968,2021,0,1
5722,11968968,2018,0,1
5723,11970968,2012,1,1
5724,11972969,1973,0,1
5725,11974968,1948,0,1
5726,11976968,1940,0,1
5727,11978968,1952,0,1
5728,11980968,1996,0,1
5729,11982968,1999,0,1
5730,11984968,2020,0,1
5731,11986968,2021,0,1
5732,11988968,2020,0,1
5733,11990968,2005,1,1
5734,11992968,1993,0,1
5735,11994968,1972,0,1
5736,11996968,1971,0,1
5737,11998968,1980,0,1
5738,12000968,1999,0,1
5739,12002968,1999,0,1
5740,12004968,2013,0,1
5741,12006968,2019,0,1
5742,12008968,2019,1,1
5743,12010968,2025,1,1
5744,12012969,1993,0,1
5745,12014968,1983,0,1
5746,12016968,1983,0,1
5747,12018968,1977,0,1
5748,12020968,2003,0,1
5749,12022968,2003,0,1
5750,12024968,2003,0,1
5751,12026968,2012,0,1
5752,12028968,2006,1,1
5753,12030968,2003,1,1
5754,12032968,1977,0,1
5755,12034968,1959,0,1
5756,12036968,1965,0,1
5757,12038968,1975,0,1
5758,12040968,1993,0,1
5759,12042968,1997,0,1
5760,12044968,2007,0,1
5761,12046968,2019,0,1
5762,12048968,2018,1,1
5763,12050968,2015,1,1
5764,12052969,2035,0,1
5765,12054968,2028,0,1
5766,12056968,2015,0,1
5767,12058968,2013,0,1
5768,12060968,1996,0,1
5769,12062968,2004,0,1
5770,12064968,1997,0,1
5771,12066968,2004,0,1
5772,12068968,2009,1,1
5773,12070968,1977,1,1
5774,12072968,1945,0,1
5775,12074968,1919,0,1
5776,12076968,1941,0,1
5777,12078968,1952,0,1
5778,12080968,1977,0,1
5779,12082968,2006,0,1
5780,12084968,2018,0,1
5781,12086968,2023,0,1
5782,12088968,2015,1,1
5783,12090968,2002,1,1
5784,12092969,1963,0,1
5785,12094968,1945,0,1
5786,12096968,1943,0,1
5787,12098968,1959,0,1
5788,12100968,1987,0,1
5789,12102968,2008,0,1
5790,12104968,2021,0,1
5791,12106968,2025,0,1
5792,12108968,2010,1,1
5793,12110968,2013,1,1
5794,12112968,1974,0,1
5795,12114968,1955,0,1
5796,12116968,1958,0,1
5797,12118968,1975,0,1
5798,12120968,1989,0,1
5799,12122968,2007,0,1
5800,12124968,2021,0,1
5801,12126968,2021,0,1
5802,12128968,2019,1,1
5803,12130968,1994,1,1
5804,12132969,1960,0,1
5805,12134968,1948,0,1
5806,12136968,1957,0,1
5807,12138968,1959,0,1
5808,12140968,1989,0,1
5809,12142968,2011,0,1
5810,12144968,2017,0,1
5811,12146968,2019,0,1
5812,12148968,2009,1,1
5813,12150968,2007,1,1
5814,12152968,1965,0,1
5815,12154968,1958,0,1
5816,12156968,1949,0,1
5817,12158968,1961,0,1
5818,12160968,1981,0,1
5819,12162968,2007,0,1
5820,12164968,2013,0,1
5821,12166968,2020,0,1
5822,12168968,2011,1,1
5823,12170968,1977,1,1
5824,12172969,1962,0,1
5825,12174968,1951,0,1
5826,12176968,1955,0,1
5827,12178968,1974,0,1
5828,12180968,1995,0,1
5829,12182968,2011,0,1
5830,12184968,2024,0,1
5831,12186968,2020,0,1
5832,12188968,2012,1,1
5833,12190968,1996,1,1
5834,12192968,1947,0,1
5835,12194968,1939,0,1
5836,12196968,1944,0,1
5837,12198968,1965,0,1
5838,12200968,1991,0,1
5839,12202968,2007,0,1
5840,12204968,2021,0,1
5841,12206968,2030,0,1
5842,12208968,2009,1,1
5843,12210968,1992,1,1
5844,12212969,1963,0,1
5845,12214968,1952,0,1
5846,12216968,1950,0,1
5847,12218968,1961,0,1
5848,12220968,1993,0,1
5849,12222968,2007,0,1
5850,12224968,2019,0,1
5851,12226968,2027,0,1
5852,12228968,2007,1,1
5853,12230968,1999,1,1
5854,12232968,1964,0,1
5855,12234968,1943,0,1
5856,12236968,1960,0,1
5857,12238968,1965,0,1
5858,12240968,1982,0,1
5859,12242968,2011,0,1
5860,12244968,2023,0,1
5861,12246968,2021,0,1
5862,12248968,2009,1,1
5863,12250968,1995,1,1
5864,12252969,1961,0,1
5865,12254968,1945,0,1
5866,12256968,1951,0,1
5867,12258968,1965,0,1
5868,12260968,1992,0,1
5869,12262968,2011,0,1
5870,12264968,2026,0,1
5871,12266968,2013,0,1
5872,12268968,2015,1,1
5873,12270968,1993,1,1
5874,12272968,1963,0,1
5875,12274968,1958,0,1
5876,12276968,1963,0,1
5877,12278968,1988,0,1
5878,12280968,1992,0,1
5879,12282968,2014,0,1
5880,12284968,2014,0,1
5881,12286968,2020,0,1
5882,12288968,2019,1,1
5883,12290968,1973,1,1
5884,12292969,1961,0,1
5885,12294968,1948,0,1
5886,12296968,1951,0,1
5887,12298968,1997,0,1
5888,12300968,1990,0,1
5889,12302968,2009,0,1
5890,12304968,2025,0,1
5891,12306968,2023,0,1
5892,12308968,2015,1,1
5893,12310968,1993,1,1
5894,12312968,1951,0,1
5895,12314968,1937,0,1
5896,12316968,1947,0,1
5897,12318968,1975,0,1
5898,12320968,1993,0,1
5899,12322968,2005,0,1
5900,12324968,2015,0,1
5901,12326968,2021,0,1
5902,12328968,2025,1,1
5903,12330968,2007,1,1
5904,12332969,1983,0,1
5905,12334968,1967,0,1
5906,12336968,1967,0,1
5907,12338968,1997,0,1
5908,12340968,1999,0,1
5909,12342968,2011,0,1
5910,12344968,2011,0,1
5911,12346968,2012,0,1
5912,12348968,2008,1,1
5913,12350968,1973,0,1
5914,12352968,1947,0,1
5915,12354968,1949,0,1
5916,12356968,1960,0,1
5917,12358968,1989,0,1
5918,12360968,1996,0,1
5919,12362968,2013,0,1
5920,12364968,2023,0,1
5921,12366968,2021,0,1
5922,12368968,2041,1,1
5923,12370968,2019,0,1
5924,12372969,2005,0,1
5925,12374968,1989,0,1
5926,12376968,1987,0,1
5927,12378968,1999,0,1
5928,12380968,1983,0,1
5929,12382968,2002,0,1
5930,12384968,2010,0,1
5931,12386968,2013,0,1
5932,12388968,2011,1,1
5933,12390968,1973,0,1
5934,12392968,1947,0,1
5935,12394968,1946,0,1
5936,12396968,1959,0,1
5937,12398968,1983,0,1
5938,12400968,1993,0,1
5939,12402968,2013,0,1
5940,12404968,2023,0,1
5941,12406968,2020,0,1
5942,12408968,2009,1,1
5943,12410968,1983,0,1
5944,12412969,1973,0,1
5945,12414968,1959,0,1
5946,12416968,1975,0,1
5947,12418968,1996,0,1
5948,12420968,1995,0,1
5949,12422968,2009,0,1
5950,12424968,2014,0,1
5951,12426968,2015,0,1
5952,12428968,2015,1,1
5953,12430968,1967,0,1
5954,12432968,1940,0,1
5955,12434968,1939,0,1
5956,12436968,1944,0,1
5957,12438968,1981,0,1
5958,12440968,1999,0,1
5959,12442968,2011,0,1
5960,12444968,2021,0,1
5961,12446968,2025,0,1
5962,12448968,2024,1,1
5963,12450968,1957,0,1
5964,12452969,1919,0,1
5965,12454968,1909,0,1
5966,12456968,1931,0,1
5967,12458968,1963,0,1
5968,12460968,1989,0,1
5969,12462968,2019,0,1
5970,12464968,2029,0,1
5971,12466968,2031,0,1
5972,12468968,2063,1,1
5973,12470968,2194,0,1
5974,12472968,2294,0,1
5975,12474968,2295,0,1
5976,12476968,2215,0,1
5977,12478968,2131,0,1
5978,12480968,2031,0,1
5979,12482968,1967,0,1
5980,12484968,1944,0,1
5981,12486968,1945,0,1
5982,12488968,1939,1,1
5983,12490968,1800,0,1
5984,12492969,1718,0,1
5985,12494968,1723,0,1
