time_s,sample_index,timestamp_us,ecg_raw,leads_off,adc_ok,ecg_morph,ecg_qrs,r_peak
0.0,34447,69418968,3,1,1,-152.4484941595949,-0.8556514804579334,0
0.002,34448,69420968,0,1,0,-153.8692865213128,-0.7234557131583081,0
0.004,34449,69422968,10,0,1,-155.3798205760438,-0.5673426038187479,0
0.006,34450,69424968,0,0,0,-157.02606414800388,-0.38566850744845815,0
0.008,34451,69426968,6,0,1,-158.7836085256751,-0.1757803160173661,0
0.01,34452,69428968,1,0,1,-160.57457494186195,0.06518307198216355,0
0.012,34453,69430968,3,0,1,-162.31303868049528,0.3387711939813246,0
0.014,34454,69432968,3,0,1,-163.93273533050777,0.6440295051162335,0
0.016,34455,69434968,2,0,1,-165.3973280300651,0.9767830841692253,0
0.018,34456,69436968,4,1,1,-166.70123208318284,1.3293620790992178,0
0.02,34457,69438968,4,1,1,-167.8674564423891,1.6907146039887642,0
0.022,34458,69440968,2,1,1,-168.94703524769855,2.046837274637939,0
0.024001,34459,69442969,13,0,1,-170.0103487088245,2.3816818045513344,0
0.026,34460,69444968,3,0,1,-171.08630508754948,2.6793123354427086,0
0.028,34461,69446968,2,0,1,-172.13377845246035,2.92553896233255,0
0.03,34462,69448968,3,0,1,-173.172019163277,3.106487912786681,0
0.032,34463,69450968,17,0,1,-174.39429469557768,3.207588286661861,0
0.034,34464,69452968,11,0,1,-176.03242446225264,3.2174662914060512,0
0.036,34465,69454968,7,0,1,-178.1381760068402,3.1331829021381283,0
0.038,34466,69456968,5,1,1,-180.57606622800694,2.9606822664174555,0
0.04,34467,69458968,5,1,1,-183.17931645265884,2.7113083375669835,0
0.042,34468,69460968,7,1,1,-185.84486825386983,2.3989879090502653,0
0.044,34469,69462968,5,0,1,-188.50837761770393,2.039508192153712,0
0.046,34470,69464968,2,0,1,-191.09335261882003,1.6502231177070015,0
0.048,34471,69466968,1,0,1,-193.5272349947499,1.2484908032463857,0
0.05,34472,69468968,3,0,1,-195.79997366504455,0.8494573886361818,0
0.052,34473,69470968,3,0,1,-197.97272793335904,0.465121936622807,0
0.054,34474,69472968,5,0,1,-200.116429365876,0.1051044042482534,0
0.056,34475,69474968,0,0,0,-202.24469709195856,-0.22223809455647547,0
0.058,34476,69476968,1,1,1,-204.3134302842028,-0.509877121492234,0
0.06,34477,69478968,0,1,0,-206.28209373882365,-0.7532956905817723,0
0.062,34478,69480968,0,1,0,-208.1669797893174,-0.9513709019879681,0
0.064001,34479,69482969,5,0,1,-210.04150309004768,-1.1060311846138968,0
0.066,34480,69484968,2,0,1,-211.97422937128158,-1.220550976480024,0
0.068,34481,69486968,0,0,0,-213.96424427601184,-1.2977821656156094,0
0.07,34482,69488968,0,0,0,-215.96265687820943,-1.3401814021385405,0
0.072,34483,69490968,0,0,0,-217.94646027759723,-1.3509842606189173,0
0.074,34484,69492968,4,0,1,-219.94191789721302,-1.334448327452098,0
0.076,34485,69494968,0,0,0,-221.97738544109092,-1.2947418323738402,0
0.078,34486,69496968,0,1,0,-224.04402715690182,-1.2350546618001945,0
0.08,34487,69498968,1,1,1,-226.11774548625408,-1.158015955271308,0
0.082,34488,69500968,1,1,1,-228.1844067265343,-1.0662663941524575,0
0.084,34489,69502968,0,0,0,-230.22772592734628,-0.9623445475122486,0
0.086,34490,69504968,0,0,0,-232.22236250424365,-0.8486873790716571,0
0.088,34491,69506968,0,0,0,-234.1500402302906,-0.7280591460312111,0
0.09,34492,69508968,1,0,1,-236.01087320842865,-0.6038177463236579,0
0.092,34493,69510968,0,0,0,-237.81826129702299,-0.47975649086313804,0
0.094,34494,69512968,0,0,0,-239.59811461168275,-0.3599235128369797,0
0.096,34495,69514968,3,0,1,-241.39566760365878,-0.24850190909555142,0
0.098,34496,69516968,1,1,1,-243.25911865051467,-0.14919038321761907,0
0.1,34497,69518968,0,1,0,-245.2184014388422,-0.06451365130430642,0
0.102,34498,69520968,5,1,1,-247.28974249949317,0.0042629389196836565,0
0.104,34499,69522968,0,0,0,-249.462758640131,0.057412747465925174,0
0.106,34500,69524968,0,0,0,-251.68193661968076,0.096965778246207,0
0.108,34501,69526968,1,0,1,-253.88151974233435,0.1257315480099055,0
0.11,34502,69528968,0,0,0,-256.0265753138586,0.14614072078097007,0
0.112,34503,69530968,1,0,1,-258.11340815111697,0.15992896783215882,0
0.114,34504,69532968,1,0,1,-260.1562392643471,0.16819684378061395,0
0.116,34505,69534968,0,0,0,-262.1774281848547,0.1715171700128586,0
0.118,34506,69536968,1,1,1,-264.20896334851193,0.16991991499874182,0
0.12,34507,69538968,3,1,1,-266.29136040375744,0.162993117956299,0
0.122,34508,69540968,0,1,0,-268.4473797034099,0.15049223677930545,0
0.124,34509,69542968,2,0,1,-270.66195326985684,0.1327812253120988,0
0.126,34510,69544968,0,0,0,-272.89238180527406,0.11059868065071976,0
0.128,34511,69546968,0,0,0,-275.08879156955516,0.08456212563818577,0
0.13,34512,69548968,0,0,0,-277.2185100121482,0.05459974697225345,0
0.132,34513,69550968,0,0,0,-279.28831181197916,0.019503944040443533,0
0.134,34514,69552968,3,0,1,-281.3410254681328,-0.0228854232598088,0
0.136,34515,69554968,0,0,0,-283.4221020154086,-0.07479641174099905,0
0.138,34516,69556968,2,1,1,-285.5518173686341,-0.13770778688424035,0
0.14,34517,69558968,0,1,0,-287.73013611514983,-0.21220373431732154,0
0.142,34518,69560968,0,1,0,-289.96035918555714,-0.2982656175340561,0
0.144001,34519,69562969,4,0,1,-292.2617278841427,-0.395420938623679,0
0.146,34520,69564968,0,0,0,-294.6414419529624,-0.5021802669071026,0
0.148,34521,69566968,0,0,0,-297.0630653522809,-0.6155168580172592,0
0.15,34522,69568968,0,0,0,-299.46978477949654,-0.7315427740038386,0
0.152,34523,69570968,0,0,0,-301.82278458532534,-0.8465468615433146,0
0.154,34524,69572968,0,0,0,-304.1074374531157,-0.9573794046209125,0
0.156,34525,69574968,0,0,0,-306.32600697405945,-1.0614868371982242,0
0.158,34526,69576968,0,1,0,-308.49458368684896,-1.1569206742238929,0
0.16,34527,69578968,1,1,1,-310.6401374097323,-1.2422456386675427,0
0.162,34528,69580968,0,1,0,-312.7926539301225,-1.3162767693309168,0
0.164,34529,69582968,2,0,1,-314.97504689705664,-1.3777445418059395,0
0.166,34530,69584968,0,0,0,-317.193439033464,-1.4249910272670498,0
0.168,34531,69586968,0,0,0,-319.43906874627737,-1.4559581402823958,0
0.17,34532,69588968,2,0,1,-321.7054375691393,-1.468551882999209,0
0.172,34533,69590968,0,0,0,-323.99174143684,-1.4608050204289607,0
0.174,34534,69592968,1,0,1,-326.29285473373227,-1.4308326296254488,0
0.176,34535,69594968,0,0,0,-328.60512403065735,-1.3771469079667589,0
0.178,34536,69596968,3,1,1,-330.9316146755407,-1.2989964624247463,0
0.18,34537,69598968,0,1,0,-333.26216781627613,-1.1962332203183756,0
0.182,34538,69600968,0,1,0,-335.5618306641536,-1.0693562461035055,0
0.184001,34539,69602969,2,0,1,-337.7934961884892,-0.9202093946492619,0
0.186,34540,69604968,0,0,0,-339.9349460581396,-0.7524890676305538,0
0.188,34541,69606968,0,0,0,-341.98374295822174,-0.5718657409803184,0
0.19,34542,69608968,7,0,1,-343.95942182807977,-0.3858620990258803,0
0.192,34543,69610968,0,0,0,-345.86196959318244,-0.20268287242107674,0
0.194,34544,69612968,0,0,0,-347.6488068473602,-0.030249402127425995,0
0.196,34545,69614968,1,0,1,-349.32167316639806,0.12276411778355523,0
0.198,34546,69616968,1,1,1,-351.0359999717255,0.24565595149913766,0
0.2,34547,69618968,22,1,1,-353.0592750267744,0.32756117162058707,0
0.202,34548,69620968,0,1,0,-355.53311432675497,0.3630830966576578,0
0.204,34549,69622968,1,0,1,-358.3280128744721,0.3556132617379987,0
0.206,34550,69624968,3,0,1,-361.2180795866611,0.31367191102443037,0
0.208,34551,69626968,0,0,0,-364.0970202100203,0.24592309475475282,0
0.21,34552,69628968,12,0,1,-366.9775140566256,0.1602702112552773,0
0.212,34553,69630968,0,0,0,-369.85081842068064,0.06571040828162317,0
0.214,34554,69632968,0,0,0,-372.6010956421548,-0.026862812687285936,0
0.216,34555,69634968,0,0,0,-375.093942498782,-0.10721793739517516,0
0.218,34556,69636968,0,1,0,-377.3112730530768,-0.16901401637732127,0
0.22,34557,69638968,7,1,1,-379.3709540123645,-0.21032544055365054,0
0.222,34558,69640968,0,1,0,-381.45201657435854,-0.23184370465006943,0
0.224001,34559,69642969,11,0,1,-383.7114584454515,-0.23463064472911965,0
0.226,34560,69644968,2,0,1,-386.2175150319367,-0.21820162297502266,0
0.228,34561,69646968,0,0,0,-388.93318906875345,-0.17985499324027432,0
0.23,34562,69648968,9,0,1,-391.7832624005131,-0.11600928099540908,0
0.232,34563,69650968,1,0,1,-394.6809523506603,-0.02307401851995905,0
0.234,34564,69652968,0,0,0,-397.4932977430213,0.10267115748211686,0
0.236,34565,69654968,0,0,0,-400.09630145746655,0.2633774297090483,0
0.238,34566,69656968,0,1,0,-402.4808762835389,0.45708401926777364,0
0.24,34567,69658968,10,1,1,-404.75684435492155,0.6775213296545493,0
0.242,34568,69660968,2,1,1,-407.0307608834988,0.9167558144519975,0
0.244,34569,69662968,2,0,1,-409.30376613947465,1.1676490513187439,0
0.246,34570,69664968,1,0,1,-411.5267555004366,1.4232792231059417,0
0.248,34571,69666968,0,0,0,-413.7322379401181,1.6748961303557282,0
0.25,34572,69668968,17,0,1,-416.0593819557789,1.9120696525725291,0
0.252,34573,69670968,0,0,0,-418.603253230213,2.1263209032722363,0
0.254,34574,69672968,4,0,1,-421.29131999862733,2.3140381690225897,0
0.256,34575,69674968,0,0,0,-423.9837429637873,2.4746798038350284,0
0.258,34576,69676968,0,1,0,-426.64978689691253,2.6072604563931967,0
0.26,34577,69678968,16,1,1,-429.3997158464767,2.7096555311221366,0
0.262,34578,69680968,2,1,1,-432.3193432470128,2.781806889636466,0
0.264001,34579,69682969,0,0,0,-435.31699175956396,2.828557384309271,0
0.266,34580,69684968,0,0,0,-438.2224067228095,2.857301248850855,0
0.268,34581,69686968,0,0,0,-440.9830684915261,2.8736196974761903,0
0.27,34582,69688968,11,0,1,-443.6931808903316,2.880348573906705,0
0.272,34583,69690968,0,0,0,-446.4533547961553,2.880201150279424,0
0.274,34584,69692968,1,0,1,-449.2665423466612,2.8777779494108318,0
0.276,34585,69694968,3,0,1,-452.09566887966474,2.878351850273204,0
0.278,34586,69696968,0,1,0,-454.944604480761,2.8861270587047767,0
0.28,34587,69698968,7,1,1,-457.84621734797474,2.904302949950033,0
0.282,34588,69700968,0,1,0,-460.79886501678277,2.936127388547832,0
0.284,34589,69702968,0,0,0,-463.7341970628437,2.985265027988352,0
0.286,34590,69704968,0,0,0,-466.5712337819516,3.054408246568375,0
0.288,34591,69706968,0,0,0,-469.2889243315054,3.143564231018219,0
0.29,34592,69708968,5,0,1,-471.9247327826036,3.249953680198918,0
0.292,34593,69710968,0,0,0,-474.5089107596367,3.3693646457066584,0
0.294,34594,69712968,0,0,0,-477.0253428834646,3.497122532473103,0
0.296,34595,69714968,0,0,0,-479.46036322315325,3.627424180966337,0
0.298,34596,69716968,0,1,0,-481.8767646360595,3.7522844786961866,0
0.3,34597,69718968,11,1,1,-484.40373499114827,3.862249708833136,0
0.302,34598,69720968,0,1,0,-487.11440457098183,3.9493280068217476,0
0.304001,34599,69722969,1,0,1,-489.94005294329196,4.009016564408834,0
0.306,34600,69724968,0,0,0,-492.7515009810139,4.038758065608419,0
0.308,34601,69726968,0,0,0,-495.4852780127229,4.03532734266467,0
0.31,34602,69728968,6,0,1,-498.16944321336786,3.9941914055095586,0
0.312,34603,69730968,1,0,1,-500.856157983147,3.9108080032734516,0
0.314,34604,69732968,3,0,1,-503.5525912868395,3.7820313269313695,0
0.316,34605,69734968,0,0,0,-506.227910223007,3.606026496387109,0
0.318,34606,69736968,0,1,0,-508.8750256737294,3.3811023954091963,0
0.32,34607,69738968,8,1,1,-511.544157178343,3.1051359252200355,0
0.322,34608,69740968,0,1,0,-514.2896484155857,2.7767440433634714,0
0.324,34609,69742968,3,0,1,-517.1071860175704,2.3966153934956504,0
0.326,34610,69744968,1,0,1,-519.959275984292,1.9670024885363717,0
0.328,34611,69746968,0,0,0,-522.83470282819,1.4904418042635337,0
0.33,34612,69748968,8,0,1,-525.7595779031466,0.9693736384831014,0
0.332,34613,69750968,0,0,0,-528.7355632516847,0.4071582193574644,0
0.334,34614,69752968,0,0,0,-531.6885085067943,-0.1911795529054099,0
0.336,34615,69754968,0,0,0,-534.528297997384,-0.8204482982248474,0
0.338,34616,69756968,1,1,1,-537.2358006340518,-1.4772708891804716,0
0.34,34617,69758968,4,1,1,-539.8638785999415,-2.160197551839141,0
0.342,34618,69760968,0,1,0,-542.4824095193587,-2.868509262872743,0
0.344001,34619,69762969,4,0,1,-545.1443823967727,-3.6013052667998005,0
0.346,34620,69764968,2,0,1,-547.8823356182008,-4.3571704532731586,0
0.348,34621,69766968,0,0,0,-550.7112745907581,-5.134042551367574,0
0.35,34622,69768968,7,0,1,-553.6357898155252,-5.929286375736706,0
0.352,34623,69770968,0,0,0,-556.62720245008,-6.739331639874307,0
0.354,34624,69772968,0,0,0,-559.6002219581177,-7.559457282548565,0
0.356,34625,69774968,0,0,0,-562.4700932027089,-8.385255920512181,0
0.358,34626,69776968,0,1,0,-565.2316222430484,-9.21449280937471,0
0.36,34627,69778968,8,1,1,-567.9511526727958,-10.047088987433341,0
0.362,34628,69780968,0,1,0,-570.6680877663301,-10.883147310428711,0
0.364,34629,69782968,0,0,0,-573.3334016207131,-11.72161336560086,0
0.366,34630,69784968,0,0,0,-575.883915999528,-12.561562688515139,0
0.368,34631,69786968,0,0,0,-578.3536021308464,-13.40410823305567,0
0.37,34632,69788968,10,0,1,-580.8813369106158,-14.252082958531949,0
0.372,34633,69790968,4,0,1,-583.587877134845,-15.107023592982578,0
0.374,34634,69792968,0,0,0,-586.4581663936896,-15.966341968826248,0
0.376,34635,69794968,3,0,1,-589.3865716054855,-16.82396020196147,0
0.378,34636,69796968,0,1,0,-592.2977215544873,-17.672684873528116,0
0.38,34637,69798968,3,1,1,-595.1965193507851,-18.505295371658292,0
0.382,34638,69800968,5,0,1,-598.1458870364937,-19.31420014142111,0
0.384001,34639,69802969,3,0,1,-601.1975712063671,-20.090164128902476,0
0.386,34640,69804968,2,0,1,-604.3325223284126,-20.821308934629844,0
0.388,34641,69806968,0,0,0,-607.47587163943,-21.493733221741632,0
0.39,34642,69808968,0,0,0,-610.5624259120666,-22.093247627737696,0
0.392,34643,69810968,4,0,1,-613.5765738987017,-22.606614399829326,0
0.394,34644,69812968,0,0,0,-616.5238860347099,-23.02135274608797,0
0.396,34645,69814968,0,0,0,-619.3942208318897,-23.325255639528425,0
0.398,34646,69816968,0,1,0,-622.1874668874855,-23.50701963992936,0
0.4,34647,69818968,0,1,0,-624.9603352052762,-23.55716195960187,0
0.402,34648,69820968,7,0,1,-627.8140330634185,-23.46765991348962,0
0.404,34649,69822968,0,0,0,-630.8073246543978,-23.230102344452277,0
0.406,34650,69824968,0,0,0,-633.8949588385128,-22.834469695157598,0
0.408,34651,69826968,0,0,0,-636.9766491726112,-22.270301692623015,0
0.41,34652,69828968,0,0,0,-639.9710923929518,-21.528511225070066,0
0.412,34653,69830968,0,0,0,-642.8319870308762,-20.602063969412516,0
0.414,34654,69832968,0,0,0,-645.5394078075591,-19.48604866874413,0
0.416,34655,69834968,0,0,0,-648.0987154433902,-18.177697612780786,0
0.418,34656,69836968,0,1,0,-650.5483542687208,-16.67635687409735,0
0.42,34657,69838968,0,1,0,-652.9758207149614,-14.98340481914102,0
0.422,34658,69840968,6,0,1,-655.5138951807621,-13.101637648263303,0
0.424001,34659,69842969,5,0,1,-658.2663710674573,-11.033271863159861,0
0.426,34660,69844968,0,0,0,-661.2113227991211,-8.777716080465543,0
0.428,34661,69846968,0,0,0,-664.215024745637,-6.331879750870723,0
0.43,34662,69848968,0,0,0,-667.1449981276763,-3.6927600298653127,0
0.432,34663,69850968,1,0,1,-669.9461735521089,-0.8594367341881957,0
0.434,34664,69852968,3,0,1,-672.63200437211,2.1666780612731014,0
0.436,34665,69854968,0,0,0,-675.2397258753887,5.382464732885129,0
0.438,34666,69856968,0,1,0,-677.8207279996403,8.783192814890048,0
0.44,34667,69858968,6,1,1,-680.4640237742195,12.362080110531613,0
0.442,34668,69860968,5,1,1,-683.2538944216848,16.111176557507452,0
0.444,34669,69862968,0,0,0,-686.1783175499423,20.02311754215486,0
0.446,34670,69864968,1,0,1,-689.134657826131,24.090760724757384,0
0.448,34671,69866968,0,0,0,-692.0290349419043,28.304804563020518,0
0.45,34672,69868968,4,0,1,-694.8319360965038,32.65224611397938,0
0.452,34673,69870968,0,0,0,-697.5526285235657,37.116568255719194,0
0.454,34674,69872968,4,0,1,-700.2011830062005,41.67836665186685,0
0.456,34675,69874968,0,0,0,-702.780293600305,46.315583583409186,0
0.458,34676,69876968,0,1,0,-705.3107024972492,51.00326355588537,0
0.46,34677,69878968,4,1,1,-707.8765609512503,55.71309900428906,0
0.462,34678,69880968,7,0,1,-710.6092492453561,60.41432947198205,0
0.464001,34679,69882969,2,0,1,-713.5843164092181,65.07635904635801,0
0.466,34680,69884968,3,0,1,-716.7590180959966,69.67039633538023,0
0.468,34681,69886968,0,0,0,-720.0140380225288,74.16875731568797,0
0.47,34682,69888968,0,0,0,-723.2263643979535,78.54332701619099,0
0.472,34683,69890968,0,0,0,-726.3203326863285,82.76440433273113,0
0.474,34684,69892968,0,0,0,-729.2861553890558,86.80032976721937,0
0.476,34685,69894968,2,0,1,-732.1618448305221,90.6180879032047,0
0.478,34686,69896968,0,1,0,-734.9923091719572,94.18461791060456,0
0.48,34687,69898968,0,1,0,-737.8019422333961,97.4680426226137,0
0.482,34688,69900968,1,0,1,-740.5995300018841,100.43834942573656,0
0.484,34689,69902968,0,0,0,-743.3848867581183,103.06804429460766,0
0.486,34690,69904968,0,0,0,-746.1440086438292,105.33297607695177,0
0.488,34691,69906968,0,0,0,-748.8535021233887,107.21287041644767,0
0.49,34692,69908968,0,0,0,-751.4908885469509,108.69160009515097,0
0.492,34693,69910968,0,0,0,-754.0395212749326,109.75738364587865,0
0.494,34694,69912968,0,0,0,-756.4934652179223,110.40277729994547,0
0.496,34695,69914968,1,0,1,-758.8631998480707,110.62440594408768,0
0.498,34696,69916968,0,1,0,-761.1781576571225,110.42246295678144,0
0.5,34697,69918968,0,1,0,-763.4976024121376,109.79969269545562,0
0.502,34698,69920968,7,0,1,-765.9109757696737,108.76015120784612,0
0.504001,34699,69922969,0,0,0,-768.4827187721461,107.3085266275086,0
0.506,34700,69924968,3,0,1,-771.199798728531,105.44876512838735,0
0.508,34701,69926968,0,0,0,-773.9981200442611,103.18047131070296,0
0.51,34702,69928968,2,0,1,-776.8140686610607,100.49425067191832,0
0.512,34703,69930968,1,0,1,-779.6014359005205,97.36740090120142,0
0.514,34704,69932968,0,0,0,-782.3294413367133,93.75992424869258,0
0.516,34705,69934968,0,0,0,-784.9937206297765,89.61053048680436,0
0.518,34706,69936968,3,1,1,-787.6294683377793,84.83314769019547,0
0.52,34707,69938968,0,1,0,-790.2894485614385,79.31496530426446,0
0.522,34708,69940968,3,0,1,-793.0060858621675,72.91588989891505,0
0.524,34709,69942968,0,0,0,-795.7728481726674,65.4689630033759,0
0.526,34710,69944968,0,0,0,-798.5477346066459,56.781949852570804,0
0.528,34711,69946968,0,0,0,-801.279126231014,46.64039650830978,0
0.53,34712,69948968,0,0,0,-803.9309275173637,34.812920256310875,0
0.532,34713,69950968,0,0,0,-806.4845911142834,21.059432731010496,0
0.534,34714,69952968,0,0,0,-808.9326156340122,5.1421557800872275,0
0.536,34715,69954968,0,0,0,-811.2773415568313,-13.160840431013215,0
0.538,34716,69956968,0,1,0,-813.535581071442,-34.039747355332885,0
0.54,34717,69958968,0,1,0,-815.7487036819061,-57.635107722792895,0
0.542,34718,69960968,1,1,1,-817.9924913292618,-84.01831661034244,0
0.544001,34719,69962969,7,0,1,-820.350724015911,-113.17060461989368,0
0.546,34720,69964968,0,0,0,-822.832278344413,-144.96113720040304,0
0.548,34721,69966968,0,0,0,-825.3285687071232,-179.12735884788728,0
0.55,34722,69968968,0,0,0,-827.6866025647574,-215.2603507155041,0
0.552,34723,69970968,0,0,0,-829.8028753647685,-252.79461377250792,0
0.554,34724,69972968,0,0,0,-831.6617264164587,-291.00208617374324,0
0.556,34725,69974968,0,0,0,-833.356052191589,-328.9925610595771,0
0.558,34726,69976968,0,1,0,-835.1191951650738,-365.7225981746739,0
0.56,34727,69978968,0,1,0,-837.360427513996,-400.0143450797991,0
0.562,34728,69980968,4,0,1,-840.6706197998969,-430.5851420935287,0
0.564,34729,69982968,0,0,0,-845.7544759030308,-456.0884687957847,0
0.566,34730,69984968,1,0,1,-853.2987299291856,-475.16756961692346,0
0.568,34731,69986968,0,0,0,-863.7811399247471,-486.52249709019077,0
0.57,34732,69988968,0,0,0,-877.1468630115849,-488.98893886738637,0
0.572,34733,69990968,0,0,0,-892.2986012321464,-481.6263568754844,0
0.574,34734,69992968,0,0,0,-906.4315159328456,-463.8128859519169,0
0.576,34735,69994968,0,0,0,-914.319565987299,-435.3434958409133,0
0.578,34736,69996968,71,1,1,-907.4828656195593,-396.5212830306409,0
0.58,34737,69998968,13,1,1,-873.2769526217058,-348.2301371882886,0
0.582,34738,70000968,7,0,1,-795.2959325233667,-291.998980028239,0
0.584001,34739,70002969,5,0,1,-656.8883598457854,-230.07058826783907,0
0.586,34740,70004968,0,0,0,-448.05534202231047,-165.45427715597384,0
0.588,34741,70006968,231,0,1,-174.6750651656714,-101.91780002800556,0
0.59,34742,70008968,856,0,1,134.0675274182587,-43.826625873304636,0
0.592,34743,70010968,1460,0,1,427.24033643140865,4.294605353396378,0
0.594,34744,70012968,1967,0,1,645.2224497783627,38.474694814598024,0
0.596,34745,70014968,2281,0,1,738.722613013354,56.087785754425965,0
0.598,34746,70016968,2271,1,1,686.6538153714434,56.48708486997464,0
0.6,34747,70018968,1941,1,1,507.83517655933656,41.30205903467572,0
0.602,34748,70020968,1187,1,1,261.8947673324284,14.275430132410918,0
0.604,34749,70022968,0,0,0,33.9012530303404,-19.435367240499545,0
0.606,34750,70024968,1,0,1,-97.02075132823825,-54.389950522149974,0
0.608,34751,70026968,61,0,1,-89.17404386345004,-85.98094220759614,0
0.61,34752,70028968,587,0,1,48.856949185626604,-111.03982449628252,0
0.612,34753,70030968,1206,0,1,265.75220048452786,-127.82961359340526,0
0.614,34754,70032968,1811,0,1,487.19486168231947,-135.59665773448052,0
0.616,34755,70034968,2202,0,1,640.5552512844906,-133.9033057632149,0
0.618,34756,70036968,2351,1,1,677.7869651308921,-121.98959739312133,0
0.62,34757,70038968,2267,1,1,591.6249519821299,-98.37352205111844,0
0.622,34758,70040968,1738,0,1,422.36775420359766,-60.817083672229,0
0.624001,34759,70042969,424,0,1,249.47330441110978,-6.779760320382351,0
0.626,34760,70044968,75,0,1,162.1124460064916,65.59358740392852,0
0.628,34761,70046968,493,0,1,220.9109678052971,156.31938127280046,0
0.63,34762,70048968,1157,0,1,438.03730554330286,262.9325624469246,0
0.632,34763,70050968,1709,0,1,785.0021985794592,380.63653845488614,0
0.634,34764,70052968,2132,0,1,1212.1590208486984,502.95324470566953,0
0.636,34765,70054968,2349,0,1,1662.0985516601968,622.4784989718496,0
0.638,34766,70056968,3016,1,1,2072.5809847716187,731.5745509902413,0
0.64,34767,70058968,4095,1,0,2379.620512553084,823.1100640002205,0
0.642,34768,70060968,4095,0,0,2532.7574161695507,891.3769516151574,0
0.644,34769,70062968,4095,0,0,2515.4899830007535,932.938929977586,0
0.646,34770,70064968,3447,0,1,2353.645206216846,946.9910064987506,0
0.648,34771,70066968,2889,0,1,2106.715403996938,935.1051911079774,0
0.65,34772,70068968,2402,0,1,1848.5378107814377,900.5296243485109,0
0.652,34773,70070968,2004,0,1,1646.0204527498192,847.3094266779069,0
0.654,34774,70072968,1780,0,1,1541.6689187162829,779.4639433804118,0
0.656,34775,70074968,1707,0,1,1540.7760480564352,700.3489472960679,0
0.658,34776,70076968,2197,1,1,1604.6906605170075,612.3045657507371,0
0.66,34777,70078968,3807,1,1,1660.0839769226723,516.7965700815103,0
0.662,34778,70080968,4095,1,0,1635.5769980552584,415.21619843659835,0
0.664001,34779,70082969,2845,0,1,1508.2739080660106,309.88387165404316,0
0.666,34780,70084968,1877,0,1,1317.3643068694057,204.3072839304994,0
0.668,34781,70086968,1484,0,1,1133.6290644978599,102.43791605905665,0
0.67,34782,70088968,1399,0,1,1018.6521181030812,7.645130833097255,0
0.672,34783,70090968,1478,0,1,1002.1999982691591,-77.92876268918428,0
0.674,34784,70092968,1675,0,1,1077.9063976994075,-153.5381332968035,0
0.676,34785,70094968,1865,0,1,1207.5010437681926,-219.67791778212035,0
0.678,34786,70096968,2363,1,1,1328.4530140368117,-277.71702114883436,0
0.68,34787,70098968,3517,1,1,1369.3729594828058,-329.30020691103357,0
0.682,34788,70100968,4095,1,0,1282.7598825970767,-375.4322026066246,0
0.684,34789,70102968,2016,0,1,1082.7428490611542,-415.5997388295974,0
0.686,34790,70104968,966,0,1,846.8220253095566,-447.80857343534456,0
0.688,34791,70106968,722,0,1,670.1482421211592,-469.73739315888014,0
0.69,34792,70108968,921,0,1,615.7611770306992,-480.037556090042,0
0.692,34793,70110968,1269,0,1,696.1415723357413,-478.9371260476977,0
0.694,34794,70112968,1693,0,1,880.1746569751691,-468.16483546439537,0
0.696,34795,70114968,2003,0,1,1108.2826884201004,-450.5113501917129,0
0.698,34796,70116968,2491,1,1,1307.0402922437063,-429.2465288216269,0
0.7,34797,70118968,3485,1,1,1405.5786615834056,-407.4409052663428,0
0.702,34798,70120968,3975,0,1,1362.8727683639208,-387.128648558757,0
0.704001,34799,70122969,2159,0,1,1197.4323127653552,-368.58865560320834,0
0.706,34800,70124968,1231,0,1,985.9527735668423,-350.4607559835541,0
0.708,34801,70126968,999,0,1,821.8034864502675,-330.8441336773621,0
0.71,34802,70128968,1171,0,1,770.8058068487346,-308.52265310716547,0
0.712,34803,70130968,1395,0,1,854.2763154327673,-283.58160166197985,0
0.714,34804,70132968,1723,0,1,1052.9799047557588,-257.4346061232511,0
0.716,34805,70134968,1983,0,1,1316.2989048997122,-232.5334495870338,0
0.718,34806,70136968,2595,1,1,1570.6634040530873,-211.90800086173266,0
0.72,34807,70138968,4095,1,0,1734.4578574232676,-198.47620112080807,0
0.722,34808,70140968,4095,0,0,1750.2968484890207,-194.02920253365255,0
0.724,34809,70142968,2859,0,1,1619.8193430855858,-198.3130498751833,0
0.726,34810,70144968,1948,0,1,1405.6202885733665,-208.99102313459758,0
0.728,34811,70146968,1559,0,1,1196.0535955495955,-222.5688590094748,0
0.73,34812,70148968,1470,0,1,1065.716970977,-235.5434578920112,0
0.732,34813,70150968,1509,0,1,1054.8416768926995,-245.18178283765278,0
0.734,34814,70152968,1675,0,1,1164.9697050237012,-249.86338722539426,0
0.736,34815,70154968,1851,0,1,1360.8967934168697,-249.11915542181922,0
0.738,34816,70156968,2525,1,1,1575.011333684398,-243.43951515484042,0
0.74,34817,70158968,4095,1,0,1722.1916355565438,-233.7479221105273,0
0.742,34818,70160968,4095,1,0,1735.5370808988403,-220.44519016751937,0
0.744001,34819,70162969,3029,0,1,1605.8019823392438,-202.4931886913788,0
0.746,34820,70164968,2084,0,1,1388.0617021907342,-177.35477963015484,0
0.748,34821,70166968,1635,0,1,1170.497565485376,-141.9020067999746,0
0.75,34822,70168968,1500,0,1,1035.9184612974664,-93.60369733297489,0
0.752,34823,70170968,1497,0,1,1039.0501182368998,-31.399134578572898,0
0.754,34824,70172968,1627,0,1,1198.7481715189228,43.85999622386143,0
0.756,34825,70174968,1811,0,1,1495.6490428000316,129.30283972964088,0
0.758,34826,70176968,2839,1,1,1872.3598647580038,220.24193248321268,0
0.76,34827,70178968,4095,1,0,2245.222517653856,310.8302675202801,0
0.762,34828,70180968,4095,0,0,2532.847966568218,395.18090373995153,0
0.764,34829,70182968,4095,0,0,2683.8734221710647,468.46991157436156,0
0.766,34830,70184968,4095,0,0,2685.217443925374,527.5239362937709,1
0.768,34831,70186968,4095,0,0,2557.875094201423,570.9456949443911,0
0.77,34832,70188968,3451,0,1,2353.199142510144,599.008463207313,0
0.772,34833,70190968,2713,0,1,2145.294094151226,613.2679497523884,0
0.774,34834,70192968,2166,0,1,2010.8297056967572,615.8049677466665,0
0.776,34835,70194968,1801,0,1,1999.9407260660128,608.2907435300358,0
0.778,34836,70196968,2323,1,1,2110.660491847131,591.2428195110401,0
0.78,34837,70198968,4095,1,0,2284.550231074496,563.8991897684313,0
0.782,34838,70200968,4095,0,0,2435.800022874354,524.9496369922648,0
0.784001,34839,70202969,4095,0,0,2494.4379315623273,473.654591878505,0
0.786,34840,70204968,4095,0,0,2430.8189389323943,410.57450154770873,0
0.788,34841,70206968,3606,0,1,2258.379702978668,337.7393554132087,0
0.79,34842,70208968,2917,0,1,2026.3354225999426,258.43817435858057,0
0.792,34843,70210968,2312,0,1,1802.9105065805024,176.6592943806698,0
0.794,34844,70212968,1899,0,1,1650.829624301842,96.2906205867713,0
0.796,34845,70214968,1691,0,1,1603.266843990652,20.34573190925056,0
0.798,34846,70216968,2055,1,1,1647.460734410692,-49.545500148891165,0
0.8,34847,70218968,3357,1,1,1725.3551128385543,-113.14676508042038,0
0.802,34848,70220968,4095,0,0,1761.619856543121,-170.94304909528452,0
0.804,34849,70222968,3431,0,1,1708.575108163262,-223.08202223411178,0
0.806,34850,70224968,2669,0,1,1573.0183116170097,-268.73143960315133,0
0.808,34851,70226968,2147,0,1,1405.8534308626258,-306.30098723941995,0
0.81,34852,70228968,1847,0,1,1272.2251315675683,-334.1724992489454,0
0.812,34853,70230968,1655,0,1,1225.7193705615953,-351.3992135303226,0
0.814,34854,70232968,1651,0,1,1292.4448007674173,-358.16008048640145,0
0.816,34855,70234968,1733,0,1,1461.3766265646202,-355.9584342868915,0
0.818,34856,70236968,2447,1,1,1680.2783491882083,-347.54022830257423,0
0.82,34857,70238968,4095,1,0,1866.655153323127,-336.3668567158267,0
0.822,34858,70240968,4095,0,0,1943.1382627169828,-325.5431122191833,0
0.824001,34859,70242969,3546,0,1,1879.1989860003305,-316.6853304032527,0
0.826,34860,70244968,2699,0,1,1705.0394028063797,-309.51947405395595,0
0.828,34861,70246968,2141,0,1,1491.4721041279765,-302.37755578366523,0
0.83,34862,70248968,1813,0,1,1317.7573819625713,-293.11380577730756,0
0.832,34863,70250968,1622,0,1,1245.9601145837564,-279.9639836358026,0
0.834,34864,70252968,1629,0,1,1305.727772509828,-262.14458624218946,0
0.836,34865,70254968,1717,0,1,1485.7744994924224,-240.16507139929413,0
0.838,34866,70256968,2523,1,1,1730.937575017469,-215.8271845222253,0
0.84,34867,70258968,4095,1,0,1954.081585172594,-191.74697127674466,0
0.842,34868,70260968,4095,0,0,2071.1460481755457,-170.32397347645596,0
0.844,34869,70262968,3880,0,1,2041.7981241407124,-152.63772529952672,0
0.846,34870,70264968,3028,0,1,1885.7139414910957,-137.98978106691382,0
0.848,34871,70266968,2428,0,1,1668.343714398308,-124.27432356033742,0
0.85,34872,70268968,2011,0,1,1472.1292718661803,-108.83282198795368,0
0.852,34873,70270968,1727,0,1,1369.3923133585317,-89.37067192785358,0
0.854,34874,70272968,1643,0,1,1403.3344528598973,-64.67816028143655,0
0.856,34875,70274968,1688,0,1,1575.3550886264136,-35.07543238032868,0
0.858,34876,70276968,2549,1,1,1838.6264758243065,-2.5137423808857022,0
0.86,34877,70278968,4095,1,0,2108.0209861006783,29.866475303875546,0
0.862,34878,70280968,4095,0,0,2293.7397158376975,58.789408264009225,0
0.864001,34879,70282969,4095,0,0,2340.1703102269903,82.01251731309675,0
0.866,34880,70284968,3764,0,1,2243.836923961461,98.95571882945951,0
0.868,34881,70286968,3081,0,1,2048.663635798362,110.66709805221983,0
0.87,34882,70288968,2513,0,1,1828.6474944382117,119.3163723192603,0
0.872,34883,70290968,2009,0,1,1663.7004591950774,127.39818340018431,0
0.874,34884,70292968,1739,0,1,1614.560739706564,136.8779295151806,0
0.876,34885,70294968,1637,0,1,1701.5143745848532,148.4998505839818,0
0.878,34886,70296968,2461,1,1,1891.2024627820556,161.4380053082263,0
0.88,34887,70298968,4095,1,0,2103.715182366462,173.56176585433977,0
0.882,34888,70300968,4095,0,0,2248.1916858861587,182.4245275934618,0
0.884,34889,70302968,4095,0,0,2266.4393371456486,186.44947955495758,0
0.886,34890,70304968,3571,0,1,2154.2298969031312,185.57609436485785,0
0.888,34891,70306968,2919,0,1,1955.7838172992301,181.1876113732905,0
0.89,34892,70308968,2361,0,1,1743.2830867143387,175.54420552100942,0
0.892,34893,70310968,1938,0,1,1591.1161908463198,170.98128283305178,0
0.894,34894,70312968,1703,0,1,1551.99940736234,169.126278314399,0
0.896,34895,70314968,1636,1,1,1638.2449969592778,170.31513375324866,0
0.898,34896,70316968,2421,1,1,1810.9368261757227,173.34575914896905,0
0.9,34897,70318968,4095,1,0,1988.6328065405403,175.8153613152282,0
0.902,34898,70320968,4095,0,0,2084.58164213411,175.15610942607495,0
0.904001,34899,70322969,3803,0,1,2051.7478327458794,169.83599536775026,0
0.906,34900,70324968,2971,0,1,1901.2389787198863,159.91547032723395,0
0.908,34901,70326968,2426,0,1,1687.8117678822025,146.76183756725982,0
0.91,34902,70328968,2005,0,1,1481.3703291103657,132.30854802936273,0
0.912,34903,70330968,1753,0,1,1341.6450278550174,118.28187882605165,0
0.914,34904,70332968,1676,0,1,1301.9254749510253,105.6202709974763,0
0.916,34905,70334968,1715,1,1,1360.346361227077,94.15154121287554,0
0.918,34906,70336968,2212,1,1,1477.5878119213173,82.55883789218672,0
0.92,34907,70338968,3385,1,1,1586.5610560927314,68.74199106812708,0
0.922,34908,70340968,3943,0,1,1621.984851250443,50.666936543501805,0
0.924,34909,70342968,2834,0,1,1558.1330246703521,27.367533160744983,0
0.926,34910,70344968,2106,0,1,1421.6249598110257,-0.6524098137965098,0
0.928,34911,70346968,1764,0,1,1267.795471476144,-31.88409156556699,0
0.93,34912,70348968,1624,0,1,1147.1810603184035,-64.5881614784654,0
0.932,34913,70350968,1618,0,1,1086.1588583368475,-97.32476040915913,0
0.934,34914,70352968,1721,0,1,1082.03842214048,-129.15647681064547,0
0.936,34915,70354968,1850,1,1,1105.666524933028,-159.6203732283845,0
0.938,34916,70356968,2313,1,1,1109.0155427355805,-188.52334812877405,0
0.94,34917,70358968,3269,1,1,1042.3035904411793,-215.51689833218023,0
0.942,34918,70360968,3044,0,1,884.8833202201391,-239.4424238876997,0
0.944001,34919,70362969,1241,0,1,671.2688330928639,-257.8878795213245,0
0.946,34920,70364968,427,0,1,479.11752055162583,-267.6353098160009,0
0.948,34921,70366968,423,0,1,382.25101558474967,-265.88362704611484,0
0.95,34922,70368968,812,0,1,410.95865476563904,-251.29840446311923,0
0.952,34923,70370968,1316,0,1,544.678222856134,-224.28227792341195,0
0.954,34924,70372968,1805,0,1,727.6219743606549,-186.6035393607371,0
0.956,34925,70374968,2143,1,1,890.8565375662841,-140.73874818772936,0
0.958,34926,70376968,2515,1,1,972.5398298740641,-89.17985362852991,0
0.96,34927,70378968,3017,1,1,936.7289091200852,-33.80588383290044,0
0.962,34928,70380968,2382,0,1,792.130956708107,24.611219324649383,0
0.964,34929,70382968,923,0,1,597.6224971563263,86.4540988810069,0
0.966,34930,70384968,368,0,1,437.06682990254376,152.53554466870912,0
0.968,34931,70386968,525,0,1,375.5995224016888,222.93599186172148,0
0.97,34932,70388968,979,0,1,431.5237010134624,296.2061886695261,0
0.972,34933,70390968,1495,0,1,577.9738442023464,369.3183461902881,0
0.974,34934,70392968,1947,0,1,762.4067953230513,438.1646093592249,0
0.976,34935,70394968,2223,1,1,928.8698665752555,498.26868768895537,0
0.978,34936,70396968,2376,1,1,1035.1924691396293,545.4753840340354,0
0.98,34937,70398968,2437,1,1,1063.1989148480416,576.4920619580446,0
0.982,34938,70400968,2123,0,1,1022.5449448991249,589.2248899749449,0
0.984001,34939,70402969,1375,0,1,945.481376454625,582.824471677348,0
0.986,34940,70404968,1101,0,1,868.6623351398167,557.3754042072467,0
0.988,34941,70406968,1305,0,1,809.6652527872118,513.4257635285701,0
0.99,34942,70408968,1591,0,1,755.5669097248219,451.7494690950673,0
0.992,34943,70410968,1883,0,1,670.8964552320417,373.51004181189967,0
0.994,34944,70412968,2151,0,1,518.1170944460398,280.67101616215206,0
0.996,34945,70414968,2254,1,1,282.59999372984134,176.44087459557443,0
0.998,34946,70416968,265,1,1,-10.4262118691247,65.4504323853896,0
1.0,34947,70418968,0,1,0,-307.0259468341717,-46.750337989514975,0
1.002,34948,70420968,0,0,0,-558.1848102139463,-154.72378599697305,0
1.004,34949,70422968,0,0,0,-741.1859864729595,-253.93823579291103,0
1.006,34950,70424968,3,0,1,-856.501051931252,-341.0052698226619,0
1.008,34951,70426968,0,0,0,-916.6448210633066,-413.64467843374734,0
1.01,34952,70428968,0,0,0,-937.8546607802346,-470.58932212864784,0
1.012,34953,70430968,0,0,0,-935.276664351531,-511.463137631696,0
1.014,34954,70432968,0,0,0,-920.7737476052521,-536.6420335664462,0
1.016,34955,70434968,0,1,0,-902.4226948347273,-547.1062616982967,0
1.018,34956,70436968,0,1,0,-884.9552272016917,-544.2924881060281,0
1.02,34957,70438968,0,1,0,-870.6040494602985,-529.952345112595,0
1.022,34958,70440968,2,0,1,-859.995801569703,-506.022362685904,0
1.024001,34959,70442969,8,0,1,-852.8622082706893,-474.5081129527493,0
1.026,34960,70444968,3,0,1,-848.4751953458326,-437.3845270388761,0
1.028,34961,70446968,0,0,0,-845.9146346048637,-396.5157915569145,0
1.03,34962,70448968,0,0,0,-844.3152693909956,-353.59715436461835,0
1.032,34963,70450968,2,0,1,-843.047611988505,-310.1159440706776,0
1.034,34964,70452968,1,0,1,-841.7418368102303,-267.32750302038994,0
1.036,34965,70454968,1,1,1,-840.2155283895577,-226.24447942870367,0
1.038,34966,70456968,0,1,0,-838.4109542665892,-187.63881967877688,0
1.04,34967,70458968,3,1,1,-836.35674080596,-152.05411724824611,0
1.042,34968,70460968,1,0,1,-834.1184455075695,-119.82513957658057,0
1.044,34969,70462968,0,0,0,-831.7548428085461,-91.10259429687835,0
1.046,34970,70464968,3,0,1,-829.314584505471,-65.88178127264655,0
1.048,34971,70466968,0,0,0,-826.8407871781151,-44.032699935248274,0
1.05,34972,70468968,2,0,1,-824.3637230503084,-25.329696717382603,0
1.052,34973,70470968,0,0,0,-821.9078738344442,-9.479931982921983,0
1.054,34974,70472968,4,0,1,-819.4987268434916,3.850568806186061,0
1.056,34975,70474968,1,1,1,-817.138657747661,15.014545799539235,0
1.058,34976,70476968,0,1,0,-814.7841937194123,24.364583076013332,0
1.06,34977,70478968,0,1,0,-812.3748350810431,32.23684896955143,0
1.062,34978,70480968,0,0,0,-809.8862425371392,38.938094079149494,0
1.064001,34979,70482969,4,0,1,-807.3395348037682,44.73716621346057,0
1.066,34980,70484968,0,0,0,-804.755564747845,49.86099875559,0
1.068,34981,70486968,0,0,0,-802.1247038058375,54.49326815462817,0
1.07,34982,70488968,0,0,0,-799.4455457175814,58.77419333067681,0
1.072,34983,70490968,4,0,1,-796.7656969015648,62.80232015411292,0
1.074,34984,70492968,0,0,0,-794.1571845667881,66.63913270988397,0
1.076,34985,70494968,5,1,1,-791.669663009457,70.31511475360838,0
1.078,34986,70496968,0,1,0,-789.3040068238302,73.83589538993024,0
1.08,34987,70498968,2,1,1,-787.0083509157837,77.18799122059792,0
1.082,34988,70500968,0,0,0,-784.7008196756897,80.34375042807608,0
1.084,34989,70502968,0,0,0,-782.3007955524945,83.26568543951922,0
1.086,34990,70504968,0,0,0,-779.7521607954764,85.9104573021331,0
1.088,34991,70506968,0,0,0,-777.03865755774,88.23250341415374,0
1.09,34992,70508968,0,0,0,-774.1902602566311,90.18733797633188,0
1.092,34993,70510968,2,0,1,-771.2813499404331,91.73450095970043,0
1.094,34994,70512968,4,0,1,-768.4023867443298,92.84046993351998,0
1.096,34995,70514968,0,1,0,-765.6097079905205,93.48136155328287,0
1.098,34996,70516968,1,1,1,-762.9196243981477,93.64404692767613,0
1.1,34997,70518968,5,1,1,-760.3433901306045,93.32573813080903,0
1.102,34998,70520968,0,0,0,-757.8782498601851,92.53376923469139,0
1.104,34999,70522968,3,0,1,-755.4747772420837,91.28525986849473,0
1.106,35000,70524968,0,0,0,-753.0437925703649,89.6055320771557,0
1.108,35001,70526968,0,0,0,-750.4852710168102,87.52580212742755,0
1.11,35002,70528968,0,0,0,-747.7232625019303,85.08069388755789,0
1.112,35003,70530968,0,0,0,-744.7394964816709,82.3059568700709,0
1.114,35004,70532968,1,0,1,-741.5886077990453,79.23690987753542,0
1.116,35005,70534968,1,1,1,-738.3996070495192,75.90760297829152,0
1.118,35006,70536968,12,1,1,-735.3311974265712,72.3512844200862,0
1.12,35007,70538968,0,1,0,-732.4498640868973,68.60259889448801,0
1.122,35008,70540968,0,0,0,-729.6737263823823,64.6984811602997,0
1.124,35009,70542968,2,0,1,-726.8953484656422,60.67542606324317,0
1.126,35010,70544968,0,0,0,-724.1190173803751,56.56646861808224,0
1.128,35011,70546968,13,0,1,-721.4449104779667,52.401305572931804,0
1.13,35012,70548968,0,0,0,-718.9252450055816,48.2090442318667,0
1.132,35013,70550968,1,0,1,-716.4731066117279,44.019869452960194,0
1.134,35014,70552968,0,0,0,-713.9561182062337,39.8629459017637,0
1.136,35015,70554968,0,1,0,-711.3367618028547,35.763376616189554,0
1.138,35016,70556968,9,1,1,-708.6850623695925,31.74181754474246,0
1.14,35017,70558968,0,1,0,-706.0696382626315,27.816673186307696,0
1.142,35018,70560968,0,0,0,-703.4794548426524,24.005768340193057,0
1.144001,35019,70562969,3,0,1,-700.8780249083643,20.325385279480187,0
1.146,35020,70564968,0,0,0,-698.2692153732664,16.78903331397001,0
1.148,35021,70566968,5,0,1,-695.6796043920757,13.407856524850914,0
1.15,35022,70568968,0,0,0,-693.1113393832584,10.191610773126264,0
1.152,35023,70570968,0,0,0,-690.5275143197124,7.14894805098286,0
1.154,35024,70572968,1,0,1,-687.8911367644406,4.286589228304784,0
1.156,35025,70574968,0,1,0,-685.2049512290293,1.6084739647654231,0
1.158,35026,70576968,4,1,1,-682.4993519117378,-0.8840200028267233,0
1.16,35027,70578968,0,1,0,-679.7851930766429,-3.191117127649669,0
1.162,35028,70580968,0,0,0,-677.0291594099142,-5.314114557450608,0
1.164,35029,70582968,0,0,0,-674.189078549724,-7.256025468221154,0
1.166,35030,70584968,0,0,0,-671.2645865754986,-9.022466029982915,0
1.168,35031,70586968,5,0,1,-668.2979038156304,-10.62144000027559,0
1.17,35032,70588968,0,0,0,-665.3206112206294,-12.061938242474142,0
1.172,35033,70590968,0,0,0,-662.3241215273812,-13.352938625543473,0
1.174,35034,70592968,2,0,1,-659.3065151781957,-14.503886497604377,0
1.176,35035,70594968,0,1,0,-656.3243572778201,-15.525248082240175,0
1.178,35036,70596968,10,1,1,-653.4692319091824,-16.42756512497716,0
1.18,35037,70598968,0,1,0,-650.7704608903422,-17.21913017682685,0
1.182,35038,70600968,0,0,0,-648.1415360480008,-17.904726416730732,0
1.184001,35039,70602969,0,0,0,-645.469357190689,-18.487415863906048,0
1.186,35040,70604968,0,0,0,-642.7329035244256,-18.971023980875437,0
1.188,35041,70606968,8,0,1,-640.0055152475596,-19.360290852023773,0
1.19,35042,70608968,0,0,0,-637.3502852560292,-19.658840428594832,0
1.192,35043,70610968,1,0,1,-634.7440518637608,-19.86773158040105,0
1.194,35044,70612968,0,0,0,-632.1237817382532,-19.986522552213007,0
1.196,35045,70614968,0,1,0,-629.468510428517,-20.01511433149584,0
1.198,35046,70616968,5,1,1,-626.8104710150509,-19.9541938321992,0
1.2,35047,70618968,0,1,0,-624.1762887427817,-19.804262267656213,0
1.202,35048,70620968,0,0,0,-621.5409535902857,-19.56491922960811,0
1.204,35049,70622968,0,0,0,-618.8606401298388,-19.235737981971898,0
1.206,35050,70624968,0,0,0,-616.1270311162212,-18.817573349517446,0
1.208,35051,70626968,3,0,1,-613.3696285833917,-18.312796838217906,0
1.21,35052,70628968,0,0,0,-610.614714815156,-17.724615553899277,0
1.212,35053,70630968,0,0,0,-607.8584013923298,-17.05664406850181,0
1.214,35054,70632968,1,0,1,-605.0861312607752,-16.313401068628806,0
1.216,35055,70634968,0,1,0,-602.2969367730675,-15.50090550048802,0
1.218,35056,70636968,3,1,1,-599.4953478132705,-14.6266180456836,0
1.22,35057,70638968,0,1,0,-596.6637109089268,-13.698969597158056,0
1.222,35058,70640968,0,0,0,-593.7528549318878,-12.72721988790366,0
1.224001,35059,70642969,0,0,0,-590.7173389869652,-11.72212612841818,0
1.226,35060,70644968,1,0,1,-587.5599507724103,-10.696649818097253,0
1.228,35061,70646968,5,0,1,-584.328921262968,-9.665523951404555,0
1.23,35062,70648968,0,0,0,-581.0719131148511,-8.64376682577268,0
1.232,35063,70650968,3,0,1,-577.8196432473171,-7.645647869573893,0
1.234,35064,70652968,4,0,1,-574.6172939630223,-6.684542769345626,0
1.236,35065,70654968,0,1,0,-571.5468741235428,-5.772622607951742,0
1.238,35066,70656968,14,1,1,-568.7077951513086,-4.919812922530001,0
1.24,35067,70658968,1,1,1,-566.1265207502925,-4.131587365168642,0
1.242,35068,70660968,1,0,1,-563.6914515836794,-3.4076352737055444,0
1.244,35069,70662968,2,0,1,-561.24981254857,-2.744116219290106,0
1.246,35070,70664968,0,0,0,-558.7421485548489,-2.1368905515787553,0
1.248,35071,70666968,9,0,1,-556.2099556041841,-1.5822627542782115,0
1.25,35072,70668968,0,0,0,-553.7005491404262,-1.0756055263054947,0
1.252,35073,70670968,3,0,1,-551.1939994075541,-0.6103615604594577,0
1.254,35074,70672968,0,0,0,-548.6345037080215,-0.17909910813783014,0
1.256,35075,70674968,0,1,0,-546.0044755466151,0.22462361559723298,0
1.258,35076,70676968,7,1,1,-543.3471830612773,0.6055188090729899,0
1.26,35077,70678968,0,1,0,-540.7093165055285,0.9675419231405726,0
1.262,35078,70680968,0,0,0,-538.0895131619596,1.314825027347874,0
1.264001,35079,70682969,4,0,1,-535.4742638298236,1.650903577371487,0
1.266,35080,70684968,0,0,0,-532.8693041656644,1.9780314386941935,0
1.268,35081,70686968,4,0,1,-530.2725610838891,2.2976566792124924,0
1.27,35082,70688968,0,0,0,-527.6511215283678,2.6108246867529328,0
1.272,35083,70690968,0,0,0,-524.9521657526225,2.9179207846918533,0
1.274,35084,70692968,0,0,0,-522.1495354604592,3.2177666998321133,0
1.276,35085,70694968,0,1,0,-519.2944330820217,3.5067670159197,0
1.278,35086,70696968,9,1,1,-516.4998442966987,3.7795213617740266,0
1.28,35087,70698968,0,1,0,-513.835498742292,4.031273021741199,0
1.282,35088,70700968,1,0,1,-511.2539485635008,4.259657993383843,0
1.284,35089,70702968,0,0,0,-508.6533399626765,4.463580818370607,0
1.286,35090,70704968,0,0,0,-505.9785701812581,4.641212418484813,0
1.288,35091,70706968,5,0,1,-503.24381222455895,4.789557053440504,0
1.29,35092,70708968,0,0,0,-500.48311385449904,4.905542294411927,0
1.292,35093,70710968,0,0,0,-497.71664500638735,4.986895219899225,0
1.294,35094,70712968,5,0,1,-494.97707682183847,5.031880457617928,0
1.296,35095,70714968,0,1,0,-492.31553447529853,5.039441528486943,0
1.298,35096,70716968,5,1,1,-489.764173189462,5.010142206272619,0
1.3,35097,70718968,0,1,0,-487.31533247988347,4.946655120355089,0
1.302,35098,70720968,0,0,0,-484.9366450883109,4.853367907266899,0
1.304001,35099,70722969,4,0,1,-482.60549094974624,4.735446549859284,0
1.306,35100,70724968,0,0,0,-480.3058588402285,4.59852406285678,0
1.308,35101,70726968,0,0,0,-477.99746487202253,4.448863329597434,0
1.31,35102,70728968,0,0,0,-475.6294129961355,4.292613828697522,0
1.312,35103,70730968,0,0,0,-473.1716789206807,4.134754234761477,0
1.314,35104,70732968,0,0,0,-470.61704798737,3.978732364769281,0
1.316,35105,70734968,0,1,0,-467.97182470747396,3.8264950661305335,0
1.318,35106,70736968,0,1,0,-465.25264449420087,3.6785797339587796,0
1.32,35107,70738968,0,1,0,-462.4891226045897,3.5342584371614865,0
1.322,35108,70740968,0,0,0,-459.7311290361879,3.391725878174231,0
1.324,35109,70742968,4,0,1,-457.0419855305508,3.248642165664074,0
1.326,35110,70744968,0,0,0,-454.45819192404764,3.103321412006528,0
1.328,35111,70746968,0,0,0,-451.9626436119924,2.955539741043969,0
1.33,35112,70748968,1,0,1,-449.51534258797244,2.8060384289367173,0
1.332,35113,70750968,0,0,0,-447.0879381134335,2.6557931438987947,0
1.334,35114,70752968,1,0,1,-444.66208433638565,2.5058928498666413,0
1.336,35115,70754968,0,1,0,-442.2181993328628,2.3575547788416684,0
1.338,35116,70756968,0,1,0,-439.7327768604484,2.2119523767128118,0
1.34,35117,70758968,0,1,0,-437.1856650766992,2.0698638988497287,0
1.342,35118,70760968,0,0,0,-434.57031534931656,1.931320406895162,0
1.344001,35119,70762969,1,0,1,-431.8955410294471,1.7955127005738953,0
1.346,35120,70764968,0,0,0,-429.1791398720867,1.6609625425116483,0
1.348,35121,70766968,0,0,0,-426.44952262316673,1.525629445843398,0
1.35,35122,70768968,3,0,1,-423.7541060215675,1.386949454750708,0
1.352,35123,70770968,0,0,0,-421.1475800961886,1.2422871457113513,0
1.354,35124,70772968,5,0,1,-418.66157726471107,1.0896981750124586,0
1.356,35125,70774968,0,1,0,-416.2740696533311,0.9285606612395376,0
1.358,35126,70776968,1,1,1,-413.9024568240739,0.7595603241372866,0
1.36,35127,70778968,0,1,0,-411.4426459182277,0.5836318087548618,0
1.362,35128,70780968,0,0,0,-408.8208123265547,0.4006394788858427,0
1.364,35129,70782968,0,0,0,-406.0253630782638,0.20859698733524312,0
1.366,35130,70784968,1,0,1,-403.1266076173919,0.0033951668707132843,0
1.368,35131,70786968,6,0,1,-400.2634680884819,-0.22054045850681536,0
1.37,35132,70788968,5,0,1,-397.5644668446735,-0.4681349580437584,0
1.372,35133,70790968,0,0,0,-395.0672841377296,-0.7415694319277084,0
1.374,35134,70792968,6,0,1,-392.7306762902315,-1.0402430386708197,0
1.376,35135,70794968,0,1,0,-390.48645175403135,-1.3618297298619955,0
1.378,35136,70796968,3,1,1,-388.2620285073874,-1.7030059606137429,0
1.38,35137,70798968,0,1,0,-386.0057776464565,-2.0603671047753593,0
1.382,35138,70800968,1,0,1,-383.7228782463828,-2.431561566902854,0
1.384001,35139,70802969,8,0,1,-381.470053985617,-2.815539783656991,0
1.386,35140,70804968,0,0,0,-379.27623893504347,-3.2112677652670447,0
1.388,35141,70806968,0,0,0,-377.08763413670135,-3.6169037667027846,0
1.39,35142,70808968,0,0,0,-374.83632972733153,-4.0314066848116425,0
1.392,35143,70810968,2,0,1,-372.52611906636054,-4.456399415125742,0
1.394,35144,70812968,4,0,1,-370.2169531681605,-4.89585201596225,0
1.396,35145,70814968,1,1,1,-367.9495671666236,-5.354394723008785,0
1.398,35146,70816968,2,1,1,-365.7042401130114,-5.836189355806966,0
1.4,35147,70818968,0,1,0,-363.42164362712606,-6.3449722406532985,0
1.402,35148,70820968,0,0,0,-361.04916408317433,-6.884530211696776,0
1.404,35149,70822968,2,0,1,-358.57752394684366,-7.458844055855182,0
1.406,35150,70824968,2,0,1,-356.040743233154,-8.071313759810362,0
1.408,35151,70826968,0,0,0,-353.49237561974087,-8.723335540002422,0
1.41,35152,70828968,3,0,1,-351.0061519129004,-9.413261225325435,0
1.412,35153,70830968,5,0,1,-348.6728398911582,-10.13531355945829,0
1.414,35154,70832968,3,0,1,-346.54344101743936,-10.877641949109858,0
1.416,35155,70834968,2,1,1,-344.57695460262727,-11.620844200776,0
1.418,35156,70836968,0,1,0,-342.6615604543655,-12.338425460897247,0
1.42,35157,70838968,0,1,0,-340.68220239755885,-12.998645719058393,0
1.422,35158,70840968,1,0,1,-338.57313076068203,-13.566418978836374,0
1.424001,35159,70842969,3,0,1,-336.3153963645528,-14.004337335497876,0
1.426,35160,70844968,0,0,0,-333.89195033041136,-14.27299643415678,0
1.428,35161,70846968,0,0,0,-331.2734660914963,-14.332048081809788,0
1.43,35162,70848968,0,0,0,-328.46950929956813,-14.142647539450904,0
1.432,35163,70850968,0,0,0,-325.5953653467426,-13.67028158094837,0
1.434,35164,70852968,1,0,1,-322.91388126983026,-12.887176831148391,0
1.436,35165,70854968,27,1,1,-320.74426425355426,-11.772308163320787,0
1.438,35166,70856968,4,1,1,-319.1220464097644,-10.307085331037962,0
1.44,35167,70858968,0,1,0,-317.53331016288996,-8.473440381479547,0
1.442,35168,70860968,0,0,0,-315.102601411358,-6.2616810283045155,0
1.444,35169,70862968,4,0,1,-310.9476243233818,-3.681601502757978,0
1.446,35170,70864968,0,0,0,-304.3478317729856,-0.7685194132835393,0
1.448,35171,70866968,1,0,1,-294.8881240630976,2.4139973492940836,0
1.45,35172,70868968,0,0,0,-282.79097068290184,5.771606028549053,0
1.452,35173,70870968,2,0,1,-269.42033355941385,9.177731642442948,0
1.454,35174,70872968,4,0,1,-257.8581306679613,12.474693533340133,0
1.456,35175,70874968,297,1,1,-252.22977158017966,15.501128543783098,0
1.458,35176,70876968,6,1,1,-254.44053641527412,18.167030014859655,0
1.46,35177,70878968,4,1,1,-261.84749763372787,20.501121433998872,0
1.462,35178,70880968,0,0,0,-269.4949534019748,22.596856712582344,0
1.464001,35179,70882969,7,0,1,-273.3792244087293,24.530484140554933,0
1.466,35180,70884968,0,0,0,-271.2316042117028,26.32781729818538,0
1.468,35181,70886968,2,0,1,-262.23800345649965,27.958447625299407,0
1.47,35182,70888968,0,0,0,-247.130444059377,29.332924273083144,0
1.472,35183,70890968,0,0,0,-228.67923305257617,30.30354272345062,0
1.474,35184,70892968,35,0,1,-212.32626456394706,30.672591399630427,0
1.476,35185,70894968,431,1,1,-204.8386128190672,30.245044752812763,0
1.478,35186,70896968,0,1,0,-209.3512926938184,28.948817347322112,0
1.48,35187,70898968,2,1,1,-222.32203427728805,26.90381713285914,0
1.482,35188,70900968,0,0,0,-237.2099887034944,24.340742875209646,0
1.484,35189,70902968,5,0,1,-249.20595248898871,21.486029591956395,0
1.486,35190,70904968,0,0,0,-256.06582758156435,18.520034137415937,0
1.488,35191,70906968,0,0,0,-257.2762984350677,15.572613497673721,0
1.49,35192,70908968,2,0,1,-253.5372556357816,12.720943919615506,0
1.492,35193,70910968,1,0,1,-246.5526694132678,9.990672516297769,0
1.494,35194,70912968,5,0,1,-239.04004740108314,7.361185439496628,0
1.496,35195,70914968,171,1,1,-234.1806601801652,4.787550036906037,0
1.498,35196,70916968,0,1,0,-233.72446670757864,2.2501100055093026,0
1.5,35197,70918968,4,1,1,-236.7421369696124,-0.2124001609709154,0
1.502,35198,70920968,2,0,1,-240.98257344691692,-2.527457444610885,0
1.504,35199,70922968,0,0,0,-244.7199859558738,-4.628464118415874,0
1.506,35200,70924968,1,0,1,-247.14180926384103,-6.468093377349794,0
1.508,35201,70926968,0,0,0,-248.06730435808,-8.018070503490103,0
1.51,35202,70928968,1,0,1,-247.69970980116506,-9.267892068830289,0
1.512,35203,70930968,5,0,1,-246.41462222993403,-10.222230538221588,0
1.514,35204,70932968,1,0,1,-244.58090902080977,-10.897209631011197,0
1.516,35205,70934968,0,1,0,-242.46334312706037,-11.317047438076381,0
1.518,35206,70936968,3,1,1,-240.24053769508956,-11.512273559682574,0
1.52,35207,70938968,2,1,1,-238.04191609179773,-11.518052453295192,0
1.522,35208,70940968,2,0,1,-235.94099804466396,-11.371683072509823,0
1.524,35209,70942968,3,0,1,-233.95018569221384,-11.110383409880834,0
1.526,35210,70944968,0,0,0,-232.03709362426312,-10.769887838767753,0
1.528,35211,70946968,3,0,1,-230.15264736709466,-10.383696425102078,0
1.53,35212,70948968,1,0,1,-228.2553689771893,-9.982619272410734,0
1.532,35213,70950968,1,0,1,-226.32164714508434,-9.594326712751826,0
1.534,35214,70952968,3,0,1,-224.35657119096987,-9.243102327565348,0
1.536,35215,70954968,3,1,1,-222.38995938403332,-8.949432271354361,0
1.538,35216,70956968,4,1,1,-220.44100088617915,-8.729083414564482,0
1.54,35217,70958968,1,1,1,-218.49223448257547,-8.592482569565584,0
1.542,35218,70960968,4,0,1,-216.50564594130552,-8.54504177207578,0
1.544,35219,70962968,2,0,1,-214.45254873107348,-8.58782969570889,0
1.546,35220,70964968,5,0,1,-212.32142102288736,-8.717819545486202,0
1.548,35221,70966968,3,0,1,-210.10933434889574,-8.927779329027684,0
1.55,35222,70968968,1,0,1,-207.8350850410932,-9.206541369199746,0
1.552,35223,70970968,6,0,1,-205.59004828303148,-9.539974268299218,0
1.554,35224,70972968,2,0,1,-203.57391208724084,-9.911667376657233,0
1.556,35225,70974968,22,1,1,-202.02140403818277,-10.301644244324867,0
1.558,35226,70976968,3,1,1,-200.98558397169728,-10.682749935074998,0
1.56,35227,70978968,3,1,1,-200.18983054813856,-11.019224816539237,0
1.562,35228,70980968,2,0,1,-199.15713849575246,-11.271617241113848,0
1.564,35229,70982968,0,0,0,-197.42777518622933,-11.4039019974836,0
1.566,35230,70984968,0,0,0,-194.67316639025506,-11.388301241126097,0
1.568,35231,70986968,1,0,1,-190.7762194099896,-11.208472282469815,0
1.57,35232,70988968,3,0,1,-185.92066473859137,-10.861410070816616,0
1.572,35233,70990968,5,0,1,-180.67250036099517,-10.357585996025742,0
1.574,35234,70992968,7,0,1,-176.05826674087274,-9.719720534169516,0
1.576,35235,70994968,91,1,1,-173.2913340382509,-8.974252109265667,0
1.578,35236,70996968,5,1,1,-172.79549794930966,-8.130238559302589,0
1.58,35237,70998968,5,1,1,-173.56258871474023,-7.167807552143072,0
1.582,35238,71000968,7,0,1,-173.8476491462296,-6.056354242980738,0
1.584,35239,71002968,6,0,1,-172.13147632567427,-4.7799085218075685,0
1.586,35240,71004968,7,0,1,-167.38227328248394,-3.347944614549455,0
1.588,35241,71006968,2,0,1,-159.10684631822852,-1.7988201137159354,0
1.59,35242,71008968,5,0,1,-147.63470235767568,-0.20295503465478149,0
1.592,35243,71010968,6,0,1,-134.60111263370771,1.335582863899111,0
1.594,35244,71012968,8,0,1,-123.50325857080122,2.6809647079945726,0
1.596,35245,71014968,331,1,1,-118.88229519423973,3.696659383318339,0
1.598,35246,71016968,1,1,1,-122.71484939755757,4.327833500367234,0
1.6,35247,71018968,0,1,0,-131.954180291229,4.6509956424367775,0
1.602,35248,71020968,2,0,1,-141.141838662451,4.811293971821792,0
1.604,35249,71022968,3,0,1,-146.03115044371154,4.931735876655525,0
1.606,35250,71024968,0,0,0,-144.39533210999264,5.0778912410525106,0
1.608,35251,71026968,13,0,1,-135.6507381674801,5.253013827850151,0
1.61,35252,71028968,1,0,1,-120.77721832915626,5.398088585482124,0
1.612,35253,71030968,3,0,1,-102.66385466011673,5.395121425839862,0
1.614,35254,71032968,45,0,1,-86.74644371448292,5.074667504961271,0
1.616,35255,71034968,420,1,1,-79.71753091808586,4.266329927479864,0
1.618,35256,71036968,23,1,1,-84.62230474895819,2.916464085539171,0
1.62,35257,71038968,5,1,1,-97.74246355026716,1.1568336172023597,0
1.622,35258,71040968,10,0,1,-112.07269157771341,-0.7745286488533942,0
1.624,35259,71042968,0,0,0,-122.06669829760136,-2.650391338036902,0
1.626,35260,71044968,0,0,0,-124.82060690848203,-4.303795133590457,0
1.628,35261,71046968,19,0,1,-119.61429117980398,-5.638653530183513,0
1.63,35262,71048968,1,0,1,-107.57500537782326,-6.631413495991291,0
1.632,35263,71050968,0,0,0,-91.74781171870907,-7.328216363602095,0
1.634,35264,71052968,41,0,1,-77.63507821186599,-7.840493325403512,0
1.636,35265,71054968,424,1,1,-71.88972121937653,-8.298489884685726,0
1.638,35266,71056968,10,1,1,-77.33636222749547,-8.73574246766632,0
1.64,35267,71058968,0,1,0,-89.86405956307985,-9.023364111950139,0
1.642,35268,71060968,0,0,0,-102.070956315454,-8.953955173139738,0
1.644,35269,71062968,5,0,1,-108.1423810990411,-8.360823164311793,0
1.646,35270,71064968,0,0,0,-105.02702811366987,-7.164382640259238,0
1.648,35271,71066968,11,0,1,-92.04281962499752,-5.37827351900934,0
1.65,35272,71068968,2,0,1,-70.9217420832565,-3.1098365613550856,0
1.652,35273,71070968,9,0,1,-46.40628438201938,-0.5562436381593845,0
1.654,35274,71072968,133,0,1,-26.771697201634424,2.013171358549413,0
1.656,35275,71074968,563,1,1,-21.100444728875914,4.342942158907429,0
1.658,35276,71076968,7,1,1,-32.1581012382934,6.35529284414752,0
1.66,35277,71078968,0,1,0,-53.05490643795571,8.217580877293098,0
1.662,35278,71080968,0,0,0,-72.99024108689238,10.205692392322142,0
1.664,35279,71082968,1,0,1,-83.82284865916299,12.535857948605615,0
1.666,35280,71084968,1,0,1,-81.42915946519284,15.300194827814096,0
1.668,35281,71086968,9,0,1,-65.0664910887266,18.45614154977188,0
1.67,35282,71088968,5,0,1,-37.34949419273153,21.825307892048002,0
1.672,35283,71090968,3,0,1,-4.996545150218708,25.09982117391408,0
1.674,35284,71092968,229,0,1,20.664937472706583,27.871864571179472,0
1.676,35285,71094968,683,1,1,27.66521496072812,29.758538867430516,0
1.678,35286,71096968,19,1,1,12.583658001599588,30.61882736213841,0
1.68,35287,71098968,0,1,0,-15.768720409269406,30.63402324100865,0
1.682,35288,71100968,3,0,1,-43.95478104487438,30.133395157116816,0
1.684,35289,71102968,0,0,0,-62.05503413995291,29.389198227347354,0
1.686,35290,71104968,4,0,1,-65.18557962623277,28.54242813456283,0
1.688,35291,71106968,11,0,1,-52.45999041095183,27.595528836179597,0
1.69,35292,71108968,0,0,0,-26.61396015601599,26.416727209855253,0
1.692,35293,71110968,0,0,0,5.405954073793055,24.751325535212978,0
1.694,35294,71112968,225,0,1,31.92180909655997,22.255649057821877,0
1.696,35295,71114968,676,1,1,40.42541666902298,18.627480663091788,0
1.698,35296,71116968,13,1,1,26.667548335698143,13.829048812753225,0
1.7,35297,71118968,4,1,1,-1.7501001843230028,8.173544158330674,0
1.702,35298,71120968,0,0,0,-32.910349316194754,2.158090770806929,0
1.704,35299,71122968,3,0,1,-58.495285025520275,-3.734998301144916,0
1.706,35300,71124968,7,0,1,-74.94581650237538,-9.110390174626417,0
1.708,35301,71126968,4,0,1,-81.84275188727494,-13.669679068893295,0
1.71,35302,71128968,7,0,1,-80.67583247189043,-17.215065521706087,0
1.712,35303,71130968,1,0,1,-74.22007148510829,-19.649929639919552,0
1.714,35304,71132968,3,0,1,-66.46223247545427,-20.976996331586793,0
1.716,35305,71134968,238,1,1,-61.88389299582474,-21.27471917576381,0
1.718,35306,71136968,13,1,1,-62.79564042017597,-20.632444413715522,0
1.72,35307,71138968,1,1,1,-67.40783455034108,-19.103840362191438,0
1.722,35308,71140968,0,0,0,-71.65837950791752,-16.741286075610077,0
1.724,35309,71142968,7,0,1,-72.03902042335403,-13.654605467165783,0
1.726,35310,71144968,4,0,1,-66.4492851251079,-10.02984621287933,0
1.728,35311,71146968,7,0,1,-54.12812461961528,-6.123330958990412,0
1.73,35312,71148968,1,0,1,-35.92570021500953,-2.252696736548212,0
1.732,35313,71150968,1,0,1,-15.051516955814407,1.2132360483432563,0
1.734,35314,71152968,100,0,1,2.238848977564544,3.8746337296404674,0
1.736,35315,71154968,447,1,1,8.58949578817726,5.375794246617906,0
1.738,35316,71156968,11,1,1,1.1348913023817317,5.544927088562146,0
1.74,35317,71158968,5,1,1,-15.73033787444325,4.460441397141598,0
1.742,35318,71160968,4,0,1,-34.73496640433626,2.3545275325796906,0
1.744,35319,71162968,5,0,1,-50.785822433270084,-0.5122947606643811,0
1.746,35320,71164968,7,0,1,-61.774352663517845,-3.8978451397329295,0
1.748,35321,71166968,10,0,1,-67.52361873580347,-7.584521225142497,0
1.75,35322,71168968,8,0,1,-68.90650574804363,-11.381190323002526,0
1.752,35323,71170968,7,0,1,-67.2897448600526,-15.123168060030606,0
1.754,35324,71172968,0,0,0,-64.35388052193846,-18.67236219742677,0
1.756,35325,71174968,79,1,1,-61.89539371935362,-21.911909283785484,0
1.758,35326,71176968,11,1,1,-61.05362817363857,-24.727115708554813,0
1.76,35327,71178968,0,1,0,-61.69284676720892,-26.990002662505553,0
1.762,35328,71180968,5,0,1,-62.96871667069988,-28.56963148011051,0
1.764,35329,71182968,7,0,1,-64.23678320347591,-29.35181611914439,0
1.766,35330,71184968,4,0,1,-65.25327188193083,-29.246614536025028,0
1.768,35331,71186968,7,0,1,-65.99301506280295,-28.18908046894552,0
1.77,35332,71188968,2,0,1,-66.51543469896839,-26.14136673329353,0
1.772,35333,71190968,3,0,1,-66.89867974348434,-23.096463177349804,0
1.774,35334,71192968,5,0,1,-67.20405630116954,-19.082727892679813,0
1.776,35335,71194968,7,1,1,-67.39331087382249,-14.167529279329411,0
1.778,35336,71196968,14,1,1,-67.1451236524669,-8.458688449991241,0
1.78,35337,71198968,3,1,1,-65.64331503486122,-2.104692960891903,0
1.782,35338,71200968,4,0,1,-61.5359574186279,4.703292185386022,0
1.784,35339,71202968,0,0,0,-53.18665073101158,11.726802409541659,0
1.786,35340,71204968,0,0,0,-39.15576319948997,18.67629404472051,0
1.788,35341,71206968,7,0,1,-18.85764065291636,25.21173171000332,0
1.79,35342,71208968,0,0,0,6.570309675039823,30.94877038912363,0
1.792,35343,71210968,7,0,1,33.109825575818775,35.46946747784548,0
1.794,35344,71212968,176,0,1,53.17956681608598,38.350190713069566,0
1.796,35345,71214968,501,1,1,58.48784374153104,39.25974898409464,0
1.798,35346,71216968,2,1,1,46.685900433250424,38.12059245515384,0
1.8,35347,71218968,3,1,1,23.800065891459838,35.16302890119458,0
1.802,35348,71220968,5,0,1,-1.4523680054940655,30.79263220722904,0
1.804,35349,71222968,5,0,1,-23.308396400193942,25.439885781765568,0
1.806,35350,71224968,3,0,1,-39.501063797292005,19.505173899105948,0
1.808,35351,71226968,0,0,0,-49.88164856610857,13.346497755253715,0
1.81,35352,71228968,0,0,0,-55.400081614321266,7.269509694383711,0
1.812,35353,71230968,4,0,1,-57.41783235542371,1.5211910415970582,0
1.814,35354,71232968,0,0,0,-57.240042454128144,-3.7115860899495434,0
1.816,35355,71234968,0,1,0,-55.85212817268243,-8.300158488038766,0
1.818,35356,71236968,0,1,0,-53.869181704909465,-12.170989346277965,0
1.82,35357,71238968,0,1,0,-51.5987077200362,-15.301166704340066,0
1.822,35358,71240968,4,0,1,-49.10766123353733,-17.711634567230902,0
1.824,35359,71242968,2,0,1,-46.26228312286821,-19.45844123851949,0
1.826,35360,71244968,0,0,0,-42.79200392343728,-20.623582612117765,0
1.828,35361,71246968,0,0,0,-38.45721550168852,-21.307276298185627,0
1.83,35362,71248968,4,0,1,-33.2899698695187,-21.62111289079155,0
1.832,35363,71250968,5,0,1,-27.801478846800336,-21.68007476517964,0
1.834,35364,71252968,1,0,1,-23.161250634687093,-21.593934838327925,0
1.836,35365,71254968,120,1,1,-20.944649016990468,-21.451237443567194,0
1.838,35366,71256968,0,1,0,-21.923520881274953,-21.287638565887868,0
1.84,35367,71258968,5,1,1,-25.210913151637584,-21.0668098789038,0
1.842,35368,71260968,7,0,1,-29.119888297343834,-20.70169415511014,0
1.844,35369,71262968,0,0,0,-32.33455314225242,-20.087230874441634,0
1.846,35370,71264968,0,0,0,-34.144756644058475,-19.11731382627072,0
1.848,35371,71266968,1,0,1,-34.33774280666282,-17.69524873478065,0
1.85,35372,71268968,0,0,0,-33.13928540454586,-15.743966874692902,0
1.852,35373,71270968,2,0,1,-31.15938306794763,-13.214420431972586,0
1.854,35374,71272968,5,0,1,-29.36299998708867,-10.092489239525953,0
1.856,35375,71274968,77,1,1,-28.73137297468182,-6.3983661028894865,0
1.858,35376,71276968,0,1,0,-29.323588538477736,-2.1738175793450267,0
1.86,35377,71278968,1,1,1,-29.702421309677874,2.522723655521702,0
1.862,35378,71280968,6,0,1,-27.58458369753282,7.596704832227541,0
1.864,35379,71282968,1,0,1,-20.76169741812339,12.89478889676375,0
1.866,35380,71284968,0,0,0,-7.562275300183899,18.196916837627008,0
1.868,35381,71286968,7,0,1,12.639212034628713,23.216537800532816,0
1.87,35382,71288968,4,0,1,38.58238220773734,27.605700334352996,0
1.872,35383,71290968,0,0,0,65.95966192519808,30.965643026101525,0
1.874,35384,71292968,183,0,1,86.6692488574069,32.87476197049506,0
1.876,35385,71294968,539,1,1,91.77313612350798,32.991017552161644,0
1.878,35386,71296968,8,1,1,78.68109970084976,31.22575725603936,0
1.88,35387,71298968,1,1,1,53.98225915071487,27.80696316473561,0
1.882,35388,71300968,0,0,0,27.439418998729195,23.14015007658915,0
1.884,35389,71302968,3,0,1,5.767730629382584,17.645890784742505,0
1.886,35390,71304968,0,0,0,-8.172333486515214,11.69968047318823,0
1.888,35391,71306968,1,0,1,-14.059601368459568,5.620760827442506,0
1.89,35392,71308968,5,0,1,-13.169116323324317,-0.3340127740161023,0
1.892,35393,71310968,0,0,0,-7.857348536946233,-5.971507044461633,0
1.894,35394,71312968,4,0,1,-1.4400047738509443,-11.159866145099265,0
1.896,35395,71314968,187,1,1,2.409778800639799,-15.8088397300066,0
1.898,35396,71316968,1,1,1,1.7178514984881303,-19.819174873227027,0
1.9,35397,71318968,1,1,1,-2.4198347947140633,-23.048949194190644,0
1.902,35398,71320968,3,0,1,-7.359419925425016,-25.343433238028812,0
1.904,35399,71322968,7,0,1,-10.978036536774937,-26.581241663358217,0
1.906,35400,71324968,0,0,0,-12.089455151430911,-26.689895806006724,0
1.908,35401,71326968,0,0,0,-10.210077417785016,-25.647270097168434,0
1.91,35402,71328968,0,0,0,-5.573041370015545,-23.48473907471289,0
1.912,35403,71330968,0,0,0,0.6933926135727404,-20.289646038869414,0
1.914,35404,71332968,5,0,1,6.337013239893395,-16.205104681058817,0
1.916,35405,71334968,199,1,1,8.583784142636205,-11.411444102354281,0
1.918,35406,71336968,4,1,1,6.434883533743914,-6.075678489286327,0
1.92,35407,71338968,0,1,0,2.239170849478029,-0.32032683443163634,0
1.922,35408,71340968,0,0,0,0.09544208074706262,5.739398958421137,0
1.924,35409,71342968,9,0,1,3.5040788870348933,11.941300613222456,0
1.926,35410,71344968,5,0,1,14.643862844807927,18.05784275393241,0
1.928,35411,71346968,4,0,1,34.21433674956481,23.798516866184816,0
1.93,35412,71348968,5,0,1,60.738395760897845,28.81447132759779,0
1.932,35413,71350968,0,0,0,89.31507502124248,32.70591101028806,0
1.934,35414,71352968,217,0,1,110.92947135897879,35.05120223720888,0
1.936,35415,71354968,565,1,1,115.89756468000235,35.51953320135991,0
1.938,35416,71356968,2,1,1,101.58985702091479,34.05537669367714,0
1.94,35417,71358968,1,1,1,75.12007591410708,30.93727305927146,0
1.942,35418,71360968,4,0,1,46.72039010828968,26.623176174123167,0
1.944,35419,71362968,5,0,1,23.25215870983081,21.57839132092558,0
1.946,35420,71364968,5,0,1,7.549821829333325,16.213952364574837,0
1.948,35421,71366968,1,0,1,-0.08421255212954293,10.874755291015674,0
1.95,35422,71368968,2,0,1,-0.8662932288623324,5.8309112096226965,0
1.952,35423,71370968,0,0,0,2.9668024655655927,1.2726279596772194,0
1.954,35424,71372968,8,0,1,8.297046235354173,-2.6898122671981177,0
1.956,35425,71374968,158,1,1,11.740004141393115,-6.007944518217423,0
1.958,35426,71376968,5,1,1,11.479079413798246,-8.64926666304457,0
1.96,35427,71378968,4,1,1,8.449678208384228,-10.565692356682266,0
1.962,35428,71380968,5,0,1,5.053617179604117,-11.715021046962226,0
1.964,35429,71382968,5,0,1,3.368186464149346,-12.095913269935812,0
1.966,35430,71384968,3,0,1,4.671109788539894,-11.757348250206721,0
1.968,35431,71386968,0,0,0,9.484745421326608,-10.79520706614272,0
1.97,35432,71388968,6,0,1,17.421014771390247,-9.348360939977406,0
1.972,35433,71390968,4,0,1,26.89014086903424,-7.592504846125447,0
1.974,35434,71392968,23,0,1,34.81059694091658,-5.7298507284867,0
1.976,35435,71394968,251,1,1,37.43605038820681,-3.955479588552586,0
1.978,35436,71396968,0,1,0,33.203426206275765,-2.387603644753237,0
1.98,35437,71398968,1,1,1,24.457495594306124,-1.029078280230768,0
1.982,35438,71400968,1,0,1,15.29974900454053,0.183702418216944,0
1.984,35439,71402968,0,0,0,8.832195333566403,1.3122975969251447,0
1.986,35440,71404968,2,0,1,6.61743331520276,2.3899165737338555,0
1.988,35441,71406968,0,0,0,9.05857974258953,3.417091359373371,0
1.99,35442,71408968,1,0,1,15.552204475328011,4.35952753050901,0
1.992,35443,71410968,0,0,0,24.368450956494485,5.148008269071532,0
1.994,35444,71412968,26,0,1,32.414395670742834,5.68258769890379,0
1.996,35445,71414968,219,1,1,36.01963202502262,5.860697842067193,0
1.998,35446,71416968,1,1,1,33.49888849305347,5.63904985116886,0
2.0,35447,71418968,5,1,1,26.626189994540113,5.0675235762365265,0
2.002,35448,71420968,6,0,1,18.71491628834505,4.247324719273679,0
2.004,35449,71422968,7,0,1,12.268717452556501,3.2741434003000736,0
2.006,35450,71424968,0,0,0,8.589681262253237,2.2182087255326515,0
2.008,35451,71426968,0,0,0,8.104565648907112,1.1210175902327766,0
2.01,35452,71428968,6,0,1,10.478963624874865,-0.007367128286813074,0
2.012,35453,71430968,5,0,1,14.666818870368104,-1.1868693857972077,0
2.014,35454,71432968,4,0,1,18.91913225790674,-2.4618344665529475,0
2.016,35455,71434968,123,1,1,21.152919588849045,-3.885168307797414,0
2.018,35456,71436968,6,1,1,20.242671447974345,-5.484039253280271,0
2.02,35457,71438968,5,1,1,16.928288806612215,-7.236079330323994,0
2.022,35458,71440968,0,0,0,12.889454764684274,-9.086336284295324,0
2.024,35459,71442968,0,0,0,9.364090881737894,-10.977031890245161,0
2.026,35460,71444968,13,0,1,6.8077374574832845,-12.858337819432048,0
2.028,35461,71446968,5,0,1,5.215883301965732,-14.685685540982796,0
2.03,35462,71448968,3,0,1,4.469060500456806,-16.415472714950585,0
2.032,35463,71450968,0,0,0,4.430607268956919,-18.004489381015656,0
2.034,35464,71452968,2,0,1,4.849773058665534,-19.41223896761887,0
2.036,35465,71454968,19,1,1,5.354636772439392,-20.600832495275228,0
2.038,35466,71456968,1,1,1,5.654327104757357,-21.53055640697379,0
2.04,35467,71458968,5,1,1,5.69471451338805,-22.156750591065503,0
2.042,35468,71460968,5,0,1,5.5660358242217285,-22.43243904181224,0
2.044,35469,71462968,0,0,0,5.363256975653712,-22.31290068012784,0
2.046,35470,71464968,7,0,1,5.143361597428452,-21.759211809186247,0
2.048,35471,71466968,0,0,0,4.930097161481058,-20.741527792677353,0
2.05,35472,71468968,0,0,0,4.7170399249998525,-19.24287695219242,0
2.052,35473,71470968,5,0,1,4.438530168921687,-17.263867849568435,0
2.054,35474,71472968,7,0,1,4.004687767710209,-14.826227858015027,0
2.056,35475,71474968,9,1,1,3.473044700313693,-11.973602101726238,0
2.058,35476,71476968,4,1,1,3.2316585570369227,-8.77191697546107,0
2.06,35477,71478968,2,1,1,4.041923440574124,-5.311904910369847,0
2.062,35478,71480968,6,0,1,6.934134487937314,-1.7130790328486718,0
2.064,35479,71482968,0,0,0,13.037814366961413,1.8737861974579886,0
2.066,35480,71484968,11,0,1,23.34428838887476,5.267236007735562,0
2.068,35481,71486968,1,0,1,38.32164076960851,8.258797903743249,0
2.07,35482,71488968,0,0,0,57.24820280941293,10.618277134529842,0
2.072,35483,71490968,1,0,1,77.16978643956543,12.099050322058472,0
2.074,35484,71492968,141,0,1,92.24930542510384,12.456718565316715,0
2.076,35485,71494968,390,1,1,96.02443558311927,11.525138515890792,0
2.078,35486,71496968,2,1,1,86.68157130562565,9.342288148069153,0
2.08,35487,71498968,1,1,1,68.96323753269479,6.190732753391428,0
2.082,35488,71500968,4,0,1,49.677359114831205,2.4904674639709103,0
2.084,35489,71502968,3,0,1,33.23159174501109,-1.322815042129725,0
2.086,35490,71504968,17,0,1,21.216048131272146,-4.844408885119988,0
2.088,35491,71506968,1,0,1,13.607489239329169,-7.71230478388014,0
2.09,35492,71508968,0,0,0,9.644778949070798,-9.619040493837883,0
2.092,35493,71510968,7,0,1,8.21802847129112,-10.326190330536514,0
2.094,35494,71512968,1,0,1,8.050123104156398,-9.676576578315153,0
2.096,35495,71514968,57,1,1,8.080313860763084,-7.597337993512031,0
2.098,35496,71516968,4,1,1,8.198481871616508,-4.092477085589413,0
2.1,35497,71518968,4,1,1,9.69687183475284,0.761423068653351,0
2.102,35498,71520968,4,0,1,14.801652468688332,6.8038940104586825,0
2.104,35499,71522968,7,0,1,25.853175295555445,13.776876429086883,0
2.106,35500,71524968,9,0,1,44.71181977664065,21.323204644344237,0
2.108,35501,71526968,4,0,1,72.04087702191117,28.99370098505484,0
2.11,35502,71528968,5,0,1,106.06476024274016,36.257253596409136,0
2.112,35503,71530968,6,0,1,140.8033410789006,42.51413436801873,0
2.114,35504,71532968,331,0,1,165.41728156660605,47.14101342131197,0
2.116,35505,71534968,620,1,1,168.97269140216292,49.6418791874932,0
2.118,35506,71536968,5,1,1,149.5802245558442,49.86691996638015,0
2.12,35507,71538968,8,1,1,116.62877016292117,48.06154786380175,0
2.122,35508,71540968,0,0,0,82.58349438953633,44.67375059724671,0
2.124,35509,71542968,7,0,1,55.645804434261294,40.155736056196815,0
2.126,35510,71544968,13,0,1,39.09073109107911,34.89379340598754,0
2.128,35511,71546968,5,0,1,33.014814634473964,29.196590596535973,0
2.13,35512,71548968,5,0,1,35.52565247813345,23.28966905653732,0
2.132,35513,71550968,5,0,1,43.1645559949807,17.312825001222038,0
2.134,35514,71552968,61,0,1,51.02887499247936,11.327017768691505,0
2.136,35515,71554968,239,1,1,54.11776070319263,5.3553591868639785,0
2.138,35516,71556968,0,1,0,50.37177605172096,-0.5404578672711224,0
2.14,35517,71558968,1,1,1,41.953579174335715,-6.22398111301019,0
2.142,35518,71560968,0,0,0,32.678186761536836,-11.532634638192064,0
2.144,35519,71562968,1,0,1,25.2149011937222,-16.337472892085383,0
2.146,35520,71564968,11,0,1,20.648377114944026,-20.557925240526863,0
2.148,35521,71566968,1,0,1,19.06054669990084,-24.153877244112408,0
2.15,35522,71568968,5,0,1,19.943048135356776,-27.116999514615568,0
2.152,35523,71570968,7,0,1,22.325572383755087,-29.463698686918857,0
2.154,35524,71572968,7,0,1,24.7750131940966,-31.227650310832708,0
2.156,35525,71574968,91,1,1,25.727645023817246,-32.44457072096182,0
2.158,35526,71576968,3,1,1,24.47160619565784,-33.12545462025663,0
2.16,35527,71578968,0,1,0,21.741108094823318,-33.241190921439326,0
2.162,35528,71580968,0,0,0,18.931749982487645,-32.73914109533114,0
2.164,35529,71582968,0,0,0,17.04568192452936,-31.56890425326065,0
2.166,35530,71584968,11,0,1,16.468844246061025,-29.693499346161712,0
2.168,35531,71586968,1,0,1,17.208323011998345,-27.091550204924133,0
2.17,35532,71588968,1,0,1,19.04023462799009,-23.760437512033363,0
2.172,35533,71590968,3,0,1,21.417176645675056,-19.723100504865933,0
2.174,35534,71592968,3,0,1,23.289726861598183,-15.035466592978164,0
2.176,35535,71594968,106,1,1,23.43236510747016,-9.783402081168775,0
2.178,35536,71596968,3,1,1,21.68113743731024,-4.062417201543992,0
2.18,35537,71598968,0,1,0,19.776486863720237,2.032880245828931,0
2.182,35538,71600968,4,0,1,20.522713378749785,8.38458734427962,0
2.184,35539,71602968,0,0,0,26.493985263552872,14.819678354708557,0
2.186,35540,71604968,7,0,1,39.45935958860019,21.09804757582757,0
2.188,35541,71606968,2,0,1,59.96077341135472,26.91335097042655,0
2.19,35542,71608968,1,0,1,86.47464743908773,31.897983360599277,0
2.192,35543,71610968,1,0,1,114.09406025892679,35.6313531699207,0
2.194,35544,71612968,263,0,1,134.00898824064154,37.67357523452264,0
2.196,35545,71614968,492,1,1,137.30159571107558,37.68515507536286,0
2.198,35546,71616968,2,1,1,122.24695816664078,35.60254839455783,0
2.2,35547,71618968,0,1,0,96.06598498450987,31.678375699719993,0
2.202,35548,71620968,4,0,1,68.33426153606774,26.328886956984142,0
2.204,35549,71622968,5,0,1,45.17923054720947,19.978659183259,0
2.206,35550,71624968,9,0,1,28.91145943588333,13.008749520695535,0
2.208,35551,71626968,4,0,1,19.570299182946428,5.749595886323683,0
2.21,35552,71628968,0,0,0,16.025767317878348,-1.5233667389823307,0
2.212,35553,71630968,0,0,0,16.526220661470347,-8.593033145256502,0
2.214,35554,71632968,5,0,1,18.868426679975215,-15.300874903523372,0
2.216,35555,71634968,83,1,1,20.782081811839305,-21.535173673531794,0
2.218,35556,71636968,0,1,0,20.927169937531204,-27.203066542709962,0
2.22,35557,71638968,0,1,0,19.47030626109101,-32.21052281185678,0
2.222,35558,71640968,2,0,1,17.33264584449742,-36.47054562961446,0
2.224,35559,71642968,1,0,1,15.22930021812347,-39.91794107411322,0
2.226,35560,71644968,1,0,1,13.469220473428521,-42.51072240417264,0
2.228,35561,71646968,3,0,1,12.095720623059975,-44.225606212090455,0
2.23,35562,71648968,0,0,0,11.012351731105838,-45.054342977526325,0
2.232,35563,71650968,5,0,1,10.093740861122612,-45.00098363138716,0
2.234,35564,71652968,2,0,1,9.29088838246227,-44.08009338874345,0
2.236,35565,71654968,0,1,0,8.717931588033025,-42.31631968019601,0
2.238,35566,71656968,7,1,1,8.690885693612643,-39.745855919500954,0
2.24,35567,71658968,1,1,1,9.762475207762463,-36.41860785747113,0
2.242,35568,71660968,6,0,1,12.747107635436649,-32.40052141011838,0
2.244,35569,71662968,3,0,1,18.640999535624914,-27.776929617153876,0
2.246,35570,71664968,1,0,1,28.375220183774445,-22.65679797880476,0
2.248,35571,71666968,0,0,0,42.330988301810635,-17.177724636157965,0
2.25,35572,71668968,1,0,1,59.59045427987971,-11.510886659502692,0
2.252,35573,71670968,1,0,1,77.00605511650713,-5.863856165584863,0
2.254,35574,71672968,173,0,1,88.91414594697744,-0.4666428339967723,0
2.256,35575,71674968,334,1,1,89.74591125493603,4.498175937018029,0
2.258,35576,71676968,5,1,1,79.03308825714927,9.002657069008528,0
2.26,35577,71678968,5,1,1,62.761089633881014,13.19138826116657,0
2.262,35578,71680968,0,0,0,49.02202129592477,17.26975979434873,0
2.264,35579,71682968,0,0,0,43.88769000681026,21.38818093006977,0
2.266,35580,71684968,0,0,0,50.55944626184909,25.595132562875598,0
2.268,35581,71686968,0,0,0,69.47538781335658,29.823515334471097,0
2.27,35582,71688968,4,0,1,97.84527176688576,33.885440614743516,0
2.272,35583,71690968,1,0,1,128.5850399019756,37.475539266037565,0
2.274,35584,71692968,360,0,1,150.29592546043722,40.21051555976412,0
2.276,35585,71694968,544,1,1,152.406025861592,41.774195757397194,0
2.278,35586,71696968,1,1,1,133.82888991077388,42.117831930492315,0
2.28,35587,71698968,4,1,1,104.38310226425952,41.48878839268066,0
2.282,35588,71700968,0,0,0,76.71246427466207,40.24182919479186,0
2.284,35589,71702968,7,0,1,59.514636817213415,38.659861665984636,0
2.286,35590,71704968,7,0,1,56.796433791453026,36.89649304537648,0
2.288,35591,71706968,4,0,1,68.92567132916706,34.97153437481749,0
2.29,35592,71708968,2,0,1,92.83116857850379,32.77391054924457,0
2.292,35593,71710968,3,0,1,121.26828745092698,30.07080353379379,0
2.294,35594,71712968,319,0,1,142.79011791654528,26.550083632233253,0
2.296,35595,71714968,535,1,1,146.45455273502688,21.963051591264115,0
2.298,35596,71716968,0,1,0,130.05140171834194,16.325181051388014,0
2.3,35597,71718968,5,1,1,101.70844837900546,9.958945837203885,0
2.302,35598,71720968,3,0,1,72.33235360839898,3.3251567866102505,0
2.304,35599,71722968,4,0,1,49.163653695715254,-3.1437293149874606,0
2.306,35600,71724968,1,0,1,35.21410017485162,-9.097956524512263,0
2.308,35601,71726968,0,0,0,30.608039919694008,-14.278690786204042,0
2.31,35602,71728968,7,0,1,33.43699144750197,-18.521909823443973,0
2.312,35603,71730968,0,0,0,40.16232673360021,-21.75675644249941,0
2.314,35604,71732968,116,0,1,46.09208275311153,-23.99070523443174,0
2.316,35605,71734968,163,1,1,47.185999317514344,-25.262355203231014,0
2.318,35606,71736968,3,1,1,42.733157449049145,-25.578058357018758,0
2.32,35607,71738968,5,1,1,35.723140775741356,-24.900890418717825,0
2.322,35608,71740968,4,0,1,30.3327022727496,-23.20445605353229,0
2.324,35609,71742968,2,0,1,29.78093242636595,-20.523368151339692,0
2.326,35610,71744968,0,0,0,35.842380919663995,-16.968763927977736,0
2.328,35611,71746968,7,0,1,48.736231402739236,-12.729038383286571,0
2.33,35612,71748968,7,0,1,66.74188014822012,-8.065943839255407,0
2.332,35613,71750968,0,0,0,85.52764206520293,-3.3061589955580226,0
2.334,35614,71752968,243,0,1,98.14958568185304,1.1876006521614138,0
2.336,35615,71754968,329,1,1,98.32993584497693,5.110106305788173,0
2.338,35616,71756968,0,1,0,85.8434725183111,8.33798827221895,0
2.34,35617,71758968,3,1,1,67.20112170652862,10.942143914755224,0
2.342,35618,71760968,2,0,1,50.51778168168792,13.06635293291756,0
2.344,35619,71762968,8,0,1,41.39341311933643,14.81613019442243,0
2.346,35620,71764968,0,0,0,42.48864562320068,16.2233175996128,0
2.348,35621,71766968,6,0,1,54.03524910133562,17.241485540822993,0
2.35,35622,71768968,0,0,0,73.71967165950781,17.74581391360457,0
2.352,35623,71770968,1,0,1,95.97079124058234,17.538362591677256,0
2.354,35624,71772968,287,0,1,112.02347803207816,16.381794333602233,0
2.356,35625,71774968,372,1,1,113.84844083010601,14.11294396098603,0
2.358,35626,71776968,1,1,1,100.36986916519241,10.791231472606256,0
2.36,35627,71778968,5,1,1,78.10789431863923,6.715301344586521,0
2.362,35628,71780968,0,0,0,55.23591207963419,2.286249141874972,0
2.364,35629,71782968,5,0,1,36.95726462945443,-2.1178904627832527,0
2.366,35630,71784968,1,0,1,25.250820456826425,-6.183807192700998,0
2.368,35631,71786968,5,0,1,19.985388174105353,-9.670952122248332,0
2.37,35632,71788968,0,0,0,19.69824144112978,-12.415865051476258,0
2.372,35633,71790968,5,0,1,21.994381711824303,-14.333449211324488,0
2.374,35634,71792968,91,0,1,24.03054609556837,-15.408015851333449,0
2.376,35635,71794968,51,1,1,23.794327291350285,-15.663695916620425,0
2.378,35636,71796968,1,1,1,21.374702284658838,-15.1342541796765,0
2.38,35637,71798968,1,1,1,18.59392207770118,-13.867290540467648,0
2.382,35638,71800968,7,0,1,17.566159012886466,-11.951690641662147,0
2.384,35639,71802968,8,0,1,19.89487672794656,-9.53212333264595,0
2.386,35640,71804968,3,0,1,26.59957130656283,-6.805683847387014,0
2.388,35641,71806968,1,0,1,37.942854611722225,-4.014660404447339,0
2.39,35642,71808968,1,0,1,52.8564228571512,-1.440090466712296,0
2.392,35643,71810968,2,0,1,68.11450275299946,0.6068237072156402,0
2.394,35644,71812968,215,0,1,78.33202962081988,1.8144679248203346,0
2.396,35645,71814968,217,1,1,78.72468667380595,1.9541897975313587,0
2.398,35646,71816968,4,1,1,69.07237778485386,0.9780682282392315,0
2.4,35647,71818968,4,1,1,53.75058125672024,-0.9769854313848549,0
2.402,35648,71820968,5,0,1,37.82209411333066,-3.6793266034372163,0
2.404,35649,71822968,7,0,1,24.340873462870995,-6.879215055031224,0
2.406,35650,71824968,1,0,1,14.411825752809463,-10.333617588918173,0
2.408,35651,71826968,0,0,0,7.983609799858044,-13.8136116113448,0
2.41,35652,71828968,4,0,1,4.386686423157649,-17.11162778962258,0
2.412,35653,71830968,5,0,1,2.7350390778873432,-20.045937059254047,0
2.414,35654,71832968,1,0,1,2.2542078220759905,-22.461898880258016,0
2.416,35655,71834968,1,1,1,2.4392889234564237,-24.233057820400454,0
2.418,35656,71836968,4,1,1,3.0496565743111788,-25.26311873346254,0
2.42,35657,71838968,4,0,1,4.088849105058351,-25.48674932694096,0
2.422,35658,71840968,0,0,0,5.798686327250067,-24.869154774154318,0
2.424,35659,71842968,0,0,0,8.556769245406642,-23.406766791404554,0
2.426,35660,71844968,0,0,0,12.653820977034165,-21.12932863241645,0
2.428,35661,71846968,3,0,1,18.03888014902043,-18.101257772369152,0
2.43,35662,71848968,5,0,1,24.086472462956678,-14.420931843322016,0
2.432,35663,71850968,0,0,0,29.350469551918806,-10.218746788868781,0
2.434,35664,71852968,121,0,1,31.738959777339204,-5.646407985467324,0
2.436,35665,71854968,62,1,1,29.92416871098392,-0.8436892458278642,0
2.438,35666,71856968,0,1,0,24.922987333967292,4.093471360765861,0
2.44,35667,71858968,5,0,1,19.678361384116556,9.099358563393036,0
2.442,35668,71860968,3,0,1,17.320703826664705,14.094557543828195,0
2.444,35669,71862968,7,0,1,20.20881641167375,18.957681728984596,0
2.446,35670,71864968,0,0,0,29.785385218501844,23.518546924567783,0
2.448,35671,71866968,0,0,0,46.28535288488807,27.55769381605374,0
2.45,35672,71868968,3,0,1,67.98562179813145,30.808228820509022,0
2.452,35673,71870968,3,0,1,90.14223428259507,32.96289144418394,0
2.454,35674,71872968,298,0,1,105.02952070885047,33.71093621994774,0
2.456,35675,71874968,314,1,1,105.78985077556365,32.849909475960075,0
2.458,35676,71876968,5,1,1,92.03599938557576,30.419550331877012,0
2.46,35677,71878968,9,0,1,69.99237104892165,26.705790036238124,0
2.462,35678,71880968,1,0,1,47.001075544048504,22.110748939365745,0
2.464,35679,71882968,3,0,1,27.594022231439006,17.03935257135582,0
2.466,35680,71884968,2,0,1,13.419057632787265,11.859131130908475,0
2.468,35681,71886968,0,0,0,4.3434727001897855,6.888411920641189,0
2.47,35682,71888968,5,0,1,-0.6518786246257875,2.3888441051961706,0
2.472,35683,71890968,0,0,0,-2.832298365363627,-1.43831257335742,0
2.474,35684,71892968,5,0,1,-3.305561789113419,-4.452950274649446,0
2.476,35685,71894968,1,1,1,-2.8188059734945625,-6.574930099640522,0
2.478,35686,71896968,0,1,0,-1.7088376339660556,-7.781682752944587,0
2.48,35687,71898968,6,0,1,0.045116927883150026,-8.104846587587645,0
2.482,35688,71900968,0,0,0,2.7441722602377894,-7.625154160675711,0
2.484,35689,71902968,1,0,1,6.853790717711689,-6.46611104653546,0
2.486,35690,71904968,2,0,1,12.764715169427873,-4.788002807781362,0
2.488,35691,71906968,0,0,0,20.45631343063377,-2.7814029780003695,0
2.49,35692,71908968,1,0,1,29.088980465655666,-0.6594545561699263,0
2.492,35693,71910968,8,0,1,36.54558121482217,1.3510819189949963,0
2.494,35694,71912968,206,0,1,39.87697929595765,3.037084748226528,0
2.496,35695,71914968,5,1,1,37.5467362071321,4.2585734795950625,0
2.498,35696,71916968,4,1,1,30.966729666731823,4.986676201162775,0
2.5,35697,71918968,11,0,1,22.91920220302672,5.270652056427304,0
2.502,35698,71920968,3,0,1,15.423596814933326,5.1862723438145295,0
2.504,35699,71922968,8,0,1,9.385716701919812,4.815811468574706,0
2.506,35700,71924968,5,0,1,5.025338212077514,4.243463487266167,0
2.508,35701,71926968,3,0,1,2.218750430771145,3.550997593410338,0
2.51,35702,71928968,0,0,0,0.7137936698548941,2.8134588459497865,0
2.512,35703,71930968,3,0,1,0.2033871918896395,2.094727182367385,0
2.514,35704,71932968,4,0,1,0.36522973046221807,1.4448528940424223,0
2.516,35705,71934968,2,1,1,0.9271250672668288,0.8999668512292187,0
2.518,35706,71936968,0,1,0,1.6816884208266956,0.4828025601757844,0
2.52,35707,71938968,10,0,1,2.438916776759932,0.20314288142026005,0
2.522,35708,71940968,2,0,1,3.0309956599674663,0.06001947039595379,0
2.524,35709,71942968,9,0,1,3.3651923711284653,0.04517946547159912,0
2.526,35710,71944968,5,0,1,3.4389985105312135,0.14576372917062042,0
2.528,35711,71946968,2,0,1,3.3147155851668053,0.3458859749558676,0
2.53,35712,71948968,7,0,1,3.058917244236074,0.6271226239990595,0
2.532,35713,71950968,4,0,1,2.698846450964659,0.9689574691022393,0
2.534,35714,71952968,8,0,1,2.254964776963263,1.3503932499029259,0
2.536,35715,71954968,4,1,1,1.8011994924405244,1.7517964210314148,0
2.538,35716,71956968,0,1,0,1.4707595446727488,2.1553881353685904,0
2.54,35717,71958968,1,0,1,1.3654309786746026,2.543674869412902,0
2.542,35718,71960968,7,0,1,1.458193631767955,2.8977930113563883,0
2.544,35719,71962968,5,0,1,1.6265483470941433,3.1986245002911593,0
2.546,35720,71964968,7,0,1,1.767526935785174,3.4296949382419597,0
2.548,35721,71966968,3,0,1,1.8534463923210787,3.5789165286394278,0
2.55,35722,71968968,5,0,1,1.8997773916530818,3.6384609297140478,0
2.552,35723,71970968,3,0,1,1.9018057201970855,3.603831908889284,0
2.554,35724,71972968,7,0,1,1.7994599493718333,3.473327902993698,0
2.556,35725,71974968,10,1,1,1.5173985486862094,3.2488120992792755,0
2.558,35726,71976968,5,1,1,1.0701553464044373,2.9374998775503256,0
2.56,35727,71978968,0,0,0,0.6010745908321589,2.5520845560148144,0
2.562,35728,71980968,1,0,1,0.2619498918480154,2.107413341364255,0
2.564,35729,71982968,6,0,1,0.07317982897274078,1.6166824957046217,0
2.566,35730,71984968,6,0,1,-0.05845061465636903,1.0908649941291082,0
2.568,35731,71986968,3,0,1,-0.22401267437112793,0.5402521998460852,0
2.57,35732,71988968,7,0,1,-0.4539197570197864,-0.02505332234828117,0
2.572,35733,71990968,4,0,1,-0.7133403629006949,-0.5957535543874388,0
2.574,35734,71992968,1,0,1,-0.9086782374816202,-1.1642689757246378,0
2.576,35735,71994968,3,1,1,-0.9440759236433074,-1.726635769621863,0
2.578,35736,71996968,2,1,1,-0.7986603456129053,-2.284646414236521,0
2.58,35737,71998968,6,0,1,-0.5451675808540202,-2.8465101422652674,0
2.582,35738,72000968,8,0,1,-0.29404075584980305,-3.4256657610971413,0
2.584,35739,72002968,4,0,1,-0.10594680360694397,-4.03867708305965,0
2.586,35740,72004968,7,0,1,0.04431042600515411,-4.7039834755549395,0
2.588,35741,72006968,2,0,1,0.22607409658040112,-5.442096543621162,0
2.59,35742,72008968,5,0,1,0.4787403054184871,-6.276298517615161,0
2.592,35743,72010968,7,0,1,0.757500635517566,-7.232699345998319,0
2.594,35744,72012968,9,0,1,0.956306028973728,-8.338461492373376,0
2.596,35745,72014968,12,1,1,1.009950055768659,-9.618226525480978,0
2.598,35746,72016968,2,1,1,0.9790173049750592,-11.090803338612577,0
2.6,35747,72018968,7,0,1,1.0072187741412826,-12.768404814090342,0
2.602,35748,72020968,1,0,1,1.1778275559960534,-14.657855366311558,0
2.604,35749,72022968,9,0,1,1.4059569012591417,-16.760924925095942,0
2.606,35750,72024968,17,0,1,1.4811187617326915,-19.07149079847476,0
2.608,35751,72026968,7,0,1,1.2637014975538463,-21.56967688997695,0
2.61,35752,72028968,4,0,1,0.8061415836571371,-24.217881241099516,0
2.612,35753,72030968,6,0,1,0.2340535907904382,-26.96223868687168,0
2.614,35754,72032968,5,0,1,-0.4135685548444883,-29.735657685336797,0
2.616,35755,72034968,18,1,1,-1.1601606815088026,-32.45795238924585,0
2.618,35756,72036968,1,1,1,-1.915825615224506,-35.03376025569565,0
2.62,35757,72038968,0,0,0,-2.411114073585633,-37.353502268981636,0
2.622,35758,72040968,1,0,1,-2.3889208210353097,-39.30025409836215,0
2.624,35759,72042968,5,0,1,-1.8088231672091872,-40.75739421975511,0
2.626,35760,72044968,10,0,1,-0.8332358972577367,-41.612186996324986,0
2.628,35761,72046968,4,0,1,0.30276167166256585,-41.75726783984019,0
2.63,35762,72048968,0,0,0,1.3085693921618287,-41.09476075251174,0
2.632,35763,72050968,3,0,1,1.6665082014174146,-39.54478809664238,0
2.634,35764,72052968,67,0,1,0.7174135204396066,-37.04993424116305,0
2.636,35765,72054968,9,1,1,-1.5434754946756577,-33.56736362039467,0
2.638,35766,72056968,4,1,1,-3.774718666583233,-29.06522233672147,0
2.64,35767,72058968,2,0,1,-3.664527027350193,-23.54180627533256,0
2.642,35768,72060968,5,0,1,1.269276588285809,-17.05249201518385,0
2.644,35769,72062968,5,0,1,13.230883846139406,-9.725428029147462,0
2.646,35770,72064968,7,0,1,33.74267204781955,-1.7680757778595506,0
2.648,35771,72066968,5,0,1,62.847278394468674,6.530039219726685,0
2.65,35772,72068968,2,0,1,97.76566565206154,14.797363266569104,0
2.652,35773,72070968,28,0,1,131.14361916040988,22.585288433408785,0
2.654,35774,72072968,491,0,1,151.31390142598482,29.420759774463136,0
2.656,35775,72074968,485,1,1,148.79123919626923,34.977118492871504,0
2.658,35776,72076968,4,1,1,125.12154313183704,39.26894395147345,0
2.66,35777,72078968,0,0,0,92.61670451933044,42.63206204457536,0
2.662,35778,72080968,3,0,1,65.23860148748453,45.4967683794794,0
2.664,35779,72082968,6,0,1,52.12848651131554,48.19891634426756,0
2.666,35780,72084968,17,0,1,57.10995322836433,50.91652532516497,0
2.668,35781,72086968,0,0,0,79.58687833765445,53.65724639632079,0
2.67,35782,72088968,0,0,0,114.28915445972031,56.25314180913763,0
2.672,35783,72090968,83,0,1,150.1429185273724,58.3674588607759,0
2.674,35784,72092968,595,0,1,171.71903124597765,59.57280422574047,0
2.676,35785,72094968,499,1,1,167.5647470810649,59.56744676108123,0
2.678,35786,72096968,4,1,1,139.67057315174065,58.39302378375691,0
2.68,35787,72098968,3,0,1,101.89578910173017,56.39762046049464,0
2.682,35788,72100968,5,0,1,69.48261673289275,53.98902193487471,0
2.684,35789,72102968,3,0,1,52.31113205851377,51.44731734083025,0
2.686,35790,72104968,5,0,1,54.54774186018646,48.87279205117788,0
2.688,35791,72106968,0,0,0,75.56876806123942,46.18450781017757,0
2.69,35792,72108968,4,0,1,109.79358005915499,43.12957289686828,0
2.692,35793,72110968,81,0,1,145.8332178128956,39.30970662156661,0
2.694,35794,72112968,594,0,1,168.14901699928564,34.2783372836965,0
2.696,35795,72114968,456,1,1,165.188213733994,27.767192202105303,0
2.698,35796,72116968,0,1,0,138.21951498237053,19.9042328905577,0
2.7,35797,72118968,0,0,0,99.31481455501799,11.178280483481267,0
2.702,35798,72120968,3,0,1,61.179942173387694,2.204684551088917,0
2.704,35799,72122968,1,0,1,31.109127998436406,-6.4492338755257705,0
2.706,35800,72124968,9,0,1,11.353929898527792,-14.314005988732674,0
2.708,35801,72126968,1,0,1,1.089595063915736,-21.025376106138395,0
2.71,35802,72128968,7,0,1,-2.185205538855155,-26.327372179119244,0
2.712,35803,72130968,5,0,1,-1.849627268425234,-30.072287707321735,0
2.714,35804,72132968,117,0,1,-1.3215110448847476,-32.208232088608156,0
2.716,35805,72134968,10,1,1,-2.513441588539343,-32.746059734062975,0
2.718,35806,72136968,0,1,0,-4.834308035972324,-31.735208000290996,0
2.72,35807,72138968,0,0,0,-6.11413497663795,-29.278291820938296,0
2.722,35808,72140968,0,0,0,-4.101748874440455,-25.55721365585177,0
2.724,35809,72142968,5,0,1,2.926403231519667,-20.839013720559862,0
2.726,35810,72144968,6,0,1,15.993384673730814,-15.467106558493388,0
2.728,35811,72146968,1,0,1,35.02496145119809,-9.848576706531006,0
2.73,35812,72148968,2,0,1,58.01542480010886,-4.4406755118338985,0
2.732,35813,72150968,3,0,1,79.79493784909484,0.26356929444570554,0
2.734,35814,72152968,405,0,1,92.36081685838377,3.785368824486516,0
2.736,35815,72154968,220,1,1,89.66853100783153,5.793865799391677,0
2.738,35816,72156968,0,1,0,73.05832916627112,6.235888211318979,0
2.74,35817,72158968,3,0,1,49.81187746274518,5.305506517033436,0
2.742,35818,72160968,2,0,1,27.141199465659888,3.3006301523975594,0
2.744,35819,72162968,2,0,1,9.064980976074002,0.5241434574325663,0
2.746,35820,72164968,0,0,0,-3.1778206568495158,-2.7458472249560595,0
2.748,35821,72166968,1,0,1,-10.035279852064148,-6.265635926271751,0
2.75,35822,72168968,4,0,1,-12.848152128294865,-9.831983745956535,0
2.752,35823,72170968,7,0,1,-13.290880366505673,-13.283524917956582,0
2.754,35824,72172968,28,0,1,-12.899073617792997,-16.496269228936995,0
2.756,35825,72174968,0,1,0,-12.619561053778446,-19.374373158259203,0
2.758,35826,72176968,0,1,0,-12.68041385909057,-21.844417791787123,0
2.76,35827,72178968,1,0,1,-12.934050041806914,-23.85785889547796,0
2.762,35828,72180968,2,0,1,-13.219735682371608,-25.393439370015834,0
2.764,35829,72182968,1,0,1,-13.43882301513688,-26.45368795501001,0
2.766,35830,72184968,0,0,0,-13.526453981096038,-27.059197094736984,0
2.768,35831,72186968,0,0,0,-13.467143875648658,-27.243736247135043,0
2.77,35832,72188968,6,0,1,-13.308516433728151,-27.04948677470636,0
2.772,35833,72190968,1,0,1,-13.111978219468137,-26.521406206238872,0
2.774,35834,72192968,3,0,1,-12.896950168225102,-25.702082164638885,0
2.776,35835,72194968,0,1,0,-12.66341007571514,-24.62896040069477,0
2.778,35836,72196968,5,1,1,-12.449369959006175,-23.33321488822722,0
2.78,35837,72198968,5,0,1,-12.330312242283641,-21.83848219514771,0
2.782,35838,72200968,3,0,1,-12.3622173096757,-20.15954710283495,0
2.784,35839,72202968,2,0,1,-12.560279169450757,-18.302848899499125,0
2.786,35840,72204968,7,0,1,-12.927027404194183,-16.269070806448518,0
2.788,35841,72206968,1,0,1,-13.445433717385985,-14.056050525335614,0
2.79,35842,72208968,1,0,1,-14.061792863066588,-11.6623226798736,0
2.792,35843,72210968,5,0,1,-14.713669401632465,-9.092131967487024,0
2.794,35844,72212968,2,0,1,-15.323028164052047,-6.360027115072402,0
2.796,35845,72214968,7,1,1,-15.717900135553823,-3.4939570064230203,0
2.798,35846,72216968,3,1,1,-15.548791937864662,-0.537775586977439,0
2.8,35847,72218968,3,0,1,-14.260144918804755,2.446174815773489,0
2.802,35848,72220968,5,0,1,-11.15345546931654,5.374418293357536,0
2.804,35849,72222968,6,0,1,-5.518216214060981,8.141066159814777,0
2.806,35850,72224968,5,0,1,3.1704321685148305,10.618983310518125,0
2.808,35851,72226968,1,0,1,14.875715359701093,12.662150975191164,0
2.81,35852,72228968,0,0,0,28.353642417801,14.107961503202453,0
2.812,35853,72230968,3,0,1,40.31902688453286,14.780636799330853,0
2.814,35854,72232968,313,0,1,45.93116031465357,14.522969386158884,0
2.816,35855,72234968,47,1,1,42.26327198260849,13.283417151520956,0
2.818,35856,72236968,3,1,1,31.194792753297797,11.181091363740162,0
2.82,35857,72238968,3,0,1,17.388302799537826,8.459137349398048,0
2.822,35858,72240968,4,0,1,4.621915699390083,5.393374143146071,0
2.824,35859,72242968,4,0,1,-5.279943280064257,2.2465838558959828,0
2.826,35860,72244968,0,0,0,-11.868551553311224,-0.74395356437942,0
2.828,35861,72246968,0,0,0,-15.495214573112758,-3.374778032449522,0
2.83,35862,72248968,0,0,0,-16.96210247713702,-5.4837635622351035,0
2.832,35863,72250968,0,0,0,-17.318523520416203,-6.955422726071858,0
2.834,35864,72252968,39,0,1,-17.57848143205866,-7.720551277468144,0
2.836,35865,72254968,0,1,0,-18.17609571905027,-7.748040908726768,0
2.838,35866,72256968,1,1,1,-18.609901352230647,-7.039125132206754,0
2.84,35867,72258968,0,0,0,-17.740125592324897,-5.633753342395874,0
2.842,35868,72260968,0,0,0,-14.290157065973254,-3.619571911337107,0
2.844,35869,72262968,3,0,1,-7.123753258787362,-1.133488662692649,0
2.846,35870,72264968,0,0,0,4.495189557175273,1.6418753748978068,0
2.848,35871,72266968,0,0,0,20.412632727385763,4.483385855629359,0
2.85,35872,72268968,4,0,1,38.81349285399642,7.133913430361009,0
2.852,35873,72270968,3,0,1,55.27680183190164,9.311537651135652,0
2.854,35874,72272968,391,0,1,63.425268661063726,10.75274401978724,0
2.856,35875,72274968,93,1,1,59.319489294275584,11.324329829581004,0
2.858,35876,72276968,3,1,1,45.392353587451495,11.111590182253106,0
2.86,35877,72278968,3,0,1,28.150678879722726,10.363737084275154,0
2.862,35878,72280968,6,0,1,13.281153828338379,9.371574976255527,0
2.864,35879,72282968,1,0,1,3.845515452911444,8.399054155482265,0
2.866,35880,72284968,8,0,1,0.7641624329739258,7.662386767715988,0
2.868,35881,72286968,0,0,0,3.3975433982517096,7.319106335566079,0
2.87,35882,72288968,3,0,1,9.756278858660028,7.459765178214786,0
2.872,35883,72290968,1,0,1,16.35194529539669,8.101979936273077,0
2.874,35884,72292968,263,0,1,18.947358494702712,9.208759439793756,0
2.876,35885,72294968,3,1,1,15.514469038422796,10.751532286496086,0
2.878,35886,72296968,4,1,1,8.319501245725128,12.751270499376126,0
2.88,35887,72298968,0,0,0,1.9290169313204046,15.232074929592416,0
2.882,35888,72300968,5,0,1,0.2535730460893788,18.15182213508406,0
2.884,35889,72302968,7,0,1,5.724568914830048,21.37759829320389,0
2.886,35890,72304968,3,0,1,19.36619336370138,24.68776911380153,0
2.888,35891,72306968,18,0,1,40.49452042142924,27.779400363652044,0
2.89,35892,72308968,0,0,0,65.97371312463137,30.280799013206504,0
2.892,35893,72310968,38,0,1,89.13705438715766,31.769719209732823,0
2.894,35894,72312968,507,0,1,100.7474991979325,31.838245256703523,0
2.896,35895,72314968,171,1,1,94.91805273633528,30.250432880194705,0
2.898,35896,72316968,2,1,1,74.50543179856246,27.07052822528565,0
2.9,35897,72318968,3,0,1,48.16684432542854,22.59965133862186,0
2.902,35898,72320968,5,0,1,23.568683662226128,17.2131249315664,0
2.904,35899,72322968,7,0,1,4.6730616922085275,11.267158898191589,0
2.906,35900,72324968,3,0,1,-7.4423246676450745,5.076672984622633,0
2.908,35901,72326968,0,0,0,-13.387428058926362,-1.0908128424185968,0
2.91,35902,72328968,2,0,1,-14.738669985464968,-7.019759669457947,0
2.912,35903,72330968,7,0,1,-13.658869033397126,-12.547558607861301,0
2.914,35904,72332968,72,0,1,-12.381809513454016,-17.554722324916963,0
2.916,35905,72334968,0,1,0,-12.270263492727256,-21.941969438914075,0
2.918,35906,72336968,0,1,0,-13.333346105197748,-25.615169639277052,0
2.92,35907,72338968,5,0,1,-14.90361121578318,-28.494255183363343,0
2.922,35908,72340968,1,0,1,-16.452592607623842,-30.526497062027456,0
2.924,35909,72342968,4,0,1,-17.742369740367028,-31.687748892914325,0
2.926,35910,72344968,0,0,0,-18.72292818768255,-31.979118235808603,0
2.928,35911,72346968,3,0,1,-19.479026991495,-31.424833346298126,0
2.93,35912,72348968,6,0,1,-20.17068748852742,-30.070232394601604,0
2.932,35913,72350968,1,0,1,-20.931593415658362,-27.97930075569171,0
2.934,35914,72352968,9,0,1,-21.7646957185301,-25.23268049069234,0
2.936,35915,72354968,3,1,1,-22.45153433323609,-21.92652583395256,0
2.938,35916,72356968,0,1,0,-22.495654049268232,-18.17240809400636,0
2.94,35917,72358968,2,0,1,-21.182778503402687,-14.099329887076731,0
2.942,35918,72360968,5,0,1,-17.70961490096314,-9.85594397591371,0
2.944,35919,72362968,2,0,1,-11.299176914263223,-5.610137991570117,0
2.946,35920,72364968,1,0,1,-1.4282205022045211,-1.5471759716428135,0
2.948,35921,72366968,3,0,1,11.69803838329895,2.132052408572415,0
2.95,35922,72368968,3,0,1,26.47280490429855,5.214213580319045,0
2.952,35923,72370968,0,0,0,39.10150983423121,7.479237500042613,0
2.954,35924,72372968,379,1,1,44.33493578753137,8.737707241267646,0
2.956,35925,72374968,3,1,1,39.49013101947107,8.928288247516049,0
2.958,35926,72376968,2,1,1,27.33324899242975,8.180289148948365,0
2.96,35927,72378968,3,0,1,13.203641551588282,6.7468169525776425,0
2.962,35928,72380968,0,0,0,0.9242718677384545,4.901777938083236,0
2.964,35929,72382968,18,0,1,-7.959382366915413,2.8981119063724226,0
2.966,35930,72384968,3,0,1,-13.274212478062857,0.9610911594205245,0
2.968,35931,72386968,0,0,0,-15.507826558744695,-0.7169300615357477,0
2.97,35932,72388968,6,0,1,-15.55193048290594,-1.984803067973096,0
2.972,35933,72390968,0,0,0,-14.691481844284956,-2.7402083794995984,0
2.974,35934,72392968,74,1,1,-14.305067033575767,-2.9272582821089252,0
2.976,35935,72394968,3,1,1,-15.00033634923686,-2.5205014307840736,0
2.978,35936,72396968,0,1,0,-16.045057007743598,-1.5142162327832107,0
2.98,35937,72398968,0,0,0,-15.96689959641996,0.06501298563756652,0
2.982,35938,72400968,4,0,1,-13.476161585559973,2.140066868332469,0
2.984,35939,72402968,18,0,1,-7.75170455460243,4.580354614978718,0
2.986,35940,72404968,1,0,1,1.5999372230447495,7.209919803150594,0
2.988,35941,72406968,6,0,1,14.297866698567761,9.815545779366936,0
2.99,35942,72408968,6,0,1,28.69009874307166,12.151921807107088,0
2.992,35943,72410968,1,0,1,40.87066891904794,13.948244883740484,0
2.994,35944,72412968,393,1,1,45.447495118034055,14.94929096850302,0
2.996,35945,72414968,1,1,1,39.710556125423246,15.018747483498014,0
2.998,35946,72416968,1,1,1,26.588276543541323,14.20603497907182,0
3.0,35947,72418968,5,0,1,11.66308714625881,12.679940188219662,0
3.002,35948,72420968,0,0,0,-1.0091431496495318,10.626491669062986,0
3.004,35949,72422968,10,0,1,-9.659219136418876,8.210315955393217,0
3.006,35950,72424968,2,0,1,-13.982083169472673,5.57023199561344,0
3.008,35951,72426968,3,0,1,-14.532432402454972,2.816922363849583,0
3.01,35952,72428968,2,0,1,-12.460094897392278,0.03104135806709829,0
3.012,35953,72430968,2,0,1,-9.507384092736418,-2.7373516672640132,0
3.014,35954,72432968,104,1,1,-7.691888968403143,-5.458442967892353,0
3.016,35955,72434968,2,1,1,-8.168021358326525,-8.094256785371282,0
3.018,35956,72436968,1,1,1,-10.467985751649197,-10.578958154423413,0
3.02,35957,72438968,3,0,1,-13.3417365794675,-12.833702308518331,0
3.022,35958,72440968,5,0,1,-15.906965792628476,-14.79031852611394,0
3.024,35959,72442968,11,0,1,-17.832804563850416,-16.39711071900865,0
3.026,35960,72444968,2,0,1,-19.05041628975533,-17.61518373994917,0
3.028,35961,72446968,1,0,1,-19.59632154458355,-18.41674291416936,0
3.03,35962,72448968,4,0,1,-19.653531196532224,-18.78659778925042,0
3.032,35963,72450968,1,0,1,-19.621931399973526,-18.723639261875586,0
3.034,35964,72452968,37,1,1,-19.980896508777178,-18.23791369395747,0
3.036,35965,72454968,0,1,0,-20.862504023179504,-17.342279196823526,0
3.038,35966,72456968,3,1,1,-21.770973299561447,-16.04784994596134,0
3.04,35967,72458968,0,0,0,-21.846720794355882,-14.371152147471411,0
3.042,35968,72460968,0,0,0,-20.284887321659976,-12.344529006602144,0
3.044,35969,72462968,9,0,1,-16.510420639098626,-10.020635594359167,0
3.046,35970,72464968,1,0,1,-10.232680066207664,-7.472182906392728,0
3.048,35971,72466968,0,0,0,-1.6366609434365404,-4.791136499875135,0
3.05,35972,72468968,0,0,0,8.143256556196643,-2.089881580655388,0
3.052,35973,72470968,4,0,1,16.403521586426546,0.49794036487523385,0
3.054,35974,72472968,268,1,1,19.44879399137821,2.8413672561632053,0
3.056,35975,72474968,2,1,1,15.552853555434076,4.879752439886613,0
3.058,35976,72476968,5,1,1,7.047259037052264,6.664725537972988,0
3.06,35977,72478968,0,0,0,-1.7050019206849978,8.310547741299434,0
3.062,35978,72480968,3,0,1,-7.234347279535005,9.919578249087301,0
3.064,35979,72482968,9,0,1,-7.643412242030667,11.551387910825758,0
3.066,35980,72484968,0,0,0,-2.2678403152637365,13.217153598789999,0
3.068,35981,72486968,0,0,0,8.345555657323692,14.876276780873603,0
3.07,35982,72488968,4,0,1,22.01232440794143,16.43371709146424,0
3.072,35983,72490968,1,0,1,34.23889888164646,17.741179308544005,0
3.074,35984,72492968,399,1,1,39.1724967513025,18.635215144031285,0
3.076,35985,72494968,0,1,0,33.952291987091215,19.039897434776584,0
3.078,35986,72496968,1,1,1,21.73615925846488,19.03245856880583,0
3.08,35987,72498968,0,0,0,8.602633286536634,18.773611511340825,0
3.082,35988,72500968,0,0,0,-0.8385561093605425,18.402033069162577,0
3.084,35989,72502968,18,0,1,-4.369597949606661,17.995670292729436,0
3.086,35990,72504968,5,0,1,-1.4183344501544504,17.572102436192253,0
3.088,35991,72506968,1,0,1,7.353966395728204,17.092275864881813,0
3.09,35992,72508968,1,0,1,19.795064081433097,16.46189958737549,0
3.092,35993,72510968,0,0,0,31.537533377869316,15.533398125284014,0
3.094,35994,72512968,378,1,1,36.79366332756993,14.143770058297902,0
3.096,35995,72514968,1,1,1,32.46457481772979,12.216366042411398,0
3.098,35996,72516968,0,1,0,21.033555629494245,9.828730742375551,0
3.1,35997,72518968,2,0,1,7.641603783193171,7.151546199619279,0
3.102,35998,72520968,5,0,1,-4.019114862088461,4.35307972070264,0
3.104,35999,72522968,13,0,1,-12.429689725157054,1.5664495397498062,0
3.106,36000,72524968,3,0,1,-17.357111683970768,-1.108972991343526,0
3.108,36001,72526968,6,0,1,-19.212260808998433,-3.6058220465884627,0
3.11,36002,72528968,0,0,0,-18.788249433807145,-5.888767091669729,0
3.112,36003,72530968,0,0,0,-17.26138115984993,-7.95447147459935,0
3.114,36004,72532968,69,1,1,-16.024685981431116,-9.824206764289725,0
3.116,36005,72534968,1,1,1,-15.959828872641634,-11.523271231275121,0
3.118,36006,72536968,3,1,1,-16.91452120255299,-13.064493177753045,0
3.12,36007,72538968,3,0,1,-18.22608912270285,-14.453788248101102,0
3.122,36008,72540968,6,0,1,-19.46413081026552,-15.701554260591895,0
3.124,36009,72542968,16,0,1,-20.52304169667028,-16.822057655125427,0
3.126,36010,72544968,0,0,0,-21.367754384250542,-17.826236190747977,0
3.128,36011,72546968,4,0,1,-21.919440333627083,-18.717426338857784,0
3.13,36012,72548968,3,0,1,-22.162626377268083,-19.49168284988691,0
3.132,36013,72550968,3,0,1,-22.25224519682976,-20.13833816095037,0
3.134,36014,72552968,18,1,1,-22.456577886560197,-20.6376524443389,0
3.136,36015,72554968,5,1,1,-22.949040116504207,-20.956123198623654,0
3.138,36016,72556968,0,1,0,-23.658345152395206,-21.04403102872231,0
3.14,36017,72558968,0,0,0,-24.398362495234345,-20.83985434528284,0
3.142,36018,72560968,3,0,1,-25.095724637072667,-20.27788953329854,0
3.144,36019,72562968,5,0,1,-25.8254357602611,-19.293087830157745,0
3.146,36020,72564968,0,0,0,-26.69874924765859,-17.823779735996116,0
3.148,36021,72566968,4,0,1,-27.78009959463661,-15.815729932831607,0
3.15,36022,72568968,0,0,0,-29.058315372416907,-13.22800256817176,0
3.152,36023,72570968,0,0,0,-30.419908343636248,-10.039469973717173,0
3.154,36024,72572968,1,1,1,-31.62228715515411,-6.25560543909749,0
3.156,36025,72574968,0,1,0,-32.255049572577605,-1.914816310474345,0
3.158,36026,72576968,0,1,0,-31.690650207847803,2.9063823312527965,0
3.16,36027,72578968,5,0,1,-29.061904637277706,8.089582755055133,0
3.162,36028,72580968,0,0,0,-23.292205267124906,13.472805500507306,0
3.164,36029,72582968,0,0,0,-13.283386972409158,18.85034015734355,0
3.166,36030,72584968,3,0,1,1.623142380939897,23.9734582142058,0
3.168,36031,72586968,1,0,1,20.93477339205976,28.55388723578285,0
3.17,36032,72588968,2,0,1,42.07173179695289,32.271159405538846,0
3.172,36033,72590968,43,0,1,59.39694158939717,34.7863295054121,0
3.174,36034,72592968,498,1,1,65.62699969611322,35.80480410250787,0
3.176,36035,72594968,1,1,1,57.474722668000254,35.21517463452825,0
3.178,36036,72596968,4,1,1,39.12419378968474,33.167268038991836,0
3.18,36037,72598968,0,0,0,18.002166522251095,29.975984571811452,0
3.182,36038,72600968,3,0,1,-0.6322987738923551,25.985038477791573,0
3.184,36039,72602968,0,0,0,-14.594991527389759,21.513668653860528,0
3.186,36040,72604968,3,0,1,-23.669792538179397,16.846342307539953,0
3.188,36041,72606968,5,0,1,-28.686382623092886,12.226318824319836,0
3.19,36042,72608968,1,0,1,-30.834670683214245,7.852837248519732,0
3.192,36043,72610968,6,0,1,-31.241981656112962,3.880537587944877,0
3.194,36044,72612968,3,1,1,-30.766383223661556,0.42042244037429377,0
3.196,36045,72614968,1,1,1,-29.92502174280785,-2.457754885745084,0
3.198,36046,72616968,1,0,1,-28.945374136392857,-4.722884058044963,0
3.2,36047,72618968,3,0,1,-27.882525746322713,-6.379591646609388,0
3.202,36048,72620968,1,0,1,-26.704123009673193,-7.463757031086944,0
3.204,36049,72622968,9,0,1,-25.32317533288831,-8.036460519679347,0
3.206,36050,72624968,0,0,0,-23.60397649466407,-8.177115132198919,0
3.208,36051,72626968,0,0,0,-21.436947669490998,-7.977801702001229,0
3.21,36052,72628968,1,0,1,-18.953617584167404,-7.5402277259277195,0
3.212,36053,72630968,1,0,1,-16.76413105047068,-6.9730210368424,0
3.214,36054,72632968,69,1,1,-15.828164122444527,-6.3820762066505585,0
3.216,36055,72634968,6,1,1,-16.68270982880173,-5.849574532733426,0
3.218,36056,72636968,0,1,0,-18.861344440158135,-5.419507579294916,0
3.22,36057,72638968,1,0,1,-21.39148943232738,-5.107823166248297,0
3.222,36058,72640968,6,0,1,-23.56446423410529,-4.920631838389108,0
3.224,36059,72642968,0,0,0,-25.078957416821645,-4.861237249665241,0
3.226,36060,72644968,1,0,1,-25.893665056148052,-4.93128462664946,0
3.228,36061,72646968,6,0,1,-26.156517434266178,-5.132581065523098,0
3.23,36062,72648968,5,0,1,-26.1219868516515,-5.467638041550615,0
3.232,36063,72650968,6,0,1,-26.021777574801487,-5.938342753851758,0
3.234,36064,72652968,5,1,1,-25.984848322189414,-6.544914779295807,0
3.236,36065,72654968,5,1,1,-26.02803732775743,-7.285848507517612,0
3.238,36066,72656968,0,1,0,-26.09280908496606,-8.158522934559512,0
3.24,36067,72658968,7,0,1,-26.11301545453037,-9.160199854179886,0
3.242,36068,72660968,5,0,1,-26.036394203288594,-10.287829836909467,0
3.244,36069,72662968,0,0,0,-25.79085261545444,-11.536436749446944,0
3.246,36070,72664968,4,0,1,-25.315506434726515,-12.898415661683496,0
3.248,36071,72666968,5,0,1,-24.63926308025435,-14.363388785930077,0
3.25,36072,72668968,3,0,1,-23.896477271205494,-15.916476764310891,0
3.252,36073,72670968,3,0,1,-23.33045157988111,-17.53614255177986,0
3.254,36074,72672968,27,1,1,-23.25114406283713,-19.191285621915206,0
3.256,36075,72674968,4,1,1,-23.789273038507094,-20.835013061308658,0
3.258,36076,72676968,0,1,0,-24.708722234352354,-22.40081453290713,0
3.26,36077,72678968,1,0,1,-25.61809087061243,-23.80811392061328,0
3.262,36078,72680968,5,0,1,-26.275129527301406,-24.970930670496546,0
3.264,36079,72682968,1,0,1,-26.626275220017533,-25.80210641598369,0
3.266,36080,72684968,5,0,1,-26.718617927475336,-26.21543242810447,0
3.268,36081,72686968,0,0,0,-26.660225634949338,-26.129031435163753,0
3.27,36082,72688968,6,0,1,-26.619329917138483,-25.469835255431814,0
3.272,36083,72690968,1,0,1,-26.818339608806582,-24.17836376563761,0
3.274,36084,72692968,28,1,1,-27.417433327742657,-22.21185554755907,0
3.276,36085,72694968,4,1,1,-28.196284831714795,-19.54411507695352,0
3.278,36086,72696968,2,1,1,-28.321303731060677,-16.167718596558668,0
3.28,36087,72698968,0,0,0,-26.543854467170245,-12.10475176401934,0
3.282,36088,72700968,9,0,1,-21.579527999606025,-7.419688962089149,0
3.284,36089,72702968,3,0,1,-12.343107540318028,-2.2259790522989924,0
3.286,36090,72704968,1,0,1,1.7473975285004864,3.3115044148946353,0
3.288,36091,72706968,5,0,1,20.110181525400254,8.974096814157821,0
3.29,36092,72708968,3,0,1,40.044259453425255,14.488966199930982,0
3.292,36093,72710968,51,0,1,55.84867479653414,19.536881853472497,0
3.294,36094,72712968,503,1,1,60.42315230328859,23.810874627769937,0
3.296,36095,72714968,2,1,1,51.085304918767996,27.15072462287833,0
3.298,36096,72716968,4,1,1,33.08673266783613,29.614862108804154,0
3.3,36097,72718968,0,0,0,15.278963190314858,31.377304608397843,0
3.302,36098,72720968,3,0,1,4.513030658674868,32.58687155362361,0
3.304,36099,72722968,2,0,1,4.417817000997346,33.313249691280255,0
3.306,36100,72724968,3,0,1,15.94467354603727,33.53981667924319,0
3.308,36101,72726968,4,0,1,37.357220264955394,33.16348259885993,0
3.31,36102,72728968,4,0,1,63.587789193931755,32.00128503072986,0
3.312,36103,72730968,116,0,1,85.55587938020375,29.812389250386556,0
3.314,36104,72732968,629,1,1,92.82340566120851,26.39312846203362,0
3.316,36105,72734968,1,1,1,81.23720384080082,21.762535506261393,0
3.318,36106,72736968,0,1,0,56.799378403122205,16.250273454810802,0
3.32,36107,72738968,0,0,0,29.549540641083695,10.358637878958529,0
3.322,36108,72740968,7,0,1,6.506145368368911,4.584721373463161,0
3.324,36109,72742968,0,0,0,-9.372936959482805,-0.6453363550475899,0
3.326,36110,72744968,7,0,1,-17.729514709330076,-4.987459804992454,0
3.328,36111,72746968,2,0,1,-19.741743169532754,-8.18775292431878,0
3.33,36112,72748968,0,0,0,-17.526407915158167,-10.08789797234741,0
3.332,36113,72750968,1,0,1,-13.977181307876497,-10.628533754406572,0
3.334,36114,72752968,165,1,1,-12.192424098611035,-9.836899494504447,0
3.336,36115,72754968,5,1,1,-13.560374920800069,-7.784743333919263,0
3.338,36116,72756968,1,1,1,-16.410128306023907,-4.55846405724761,0
3.34,36117,72758968,4,0,1,-17.297347964307903,-0.28400672569140184,0
3.342,36118,72760968,4,0,1,-12.979924758260733,4.834084903631005,0
3.344,36119,72762968,1,0,1,-1.1705125191950376,10.502090620590376,0
3.346,36120,72764968,6,0,1,19.077575533352544,16.343012806835663,0
3.348,36121,72766968,6,0,1,46.569416399547656,21.90669479108346,0
3.35,36122,72768968,0,0,0,76.7391280557742,26.68470752185566,0
3.352,36123,72770968,143,0,1,100.60739217710504,30.13955014086922,0
3.354,36124,72772968,671,1,1,107.59624212556459,31.81220779365138,0
3.356,36125,72774968,2,1,1,93.79245719600436,31.52456160877775,0
3.358,36126,72776968,6,1,1,66.02674878130598,29.471485432250155,0
3.36,36127,72778968,3,0,1,35.297477100626075,26.070023866751995,0
3.362,36128,72780968,0,0,0,9.308223823066935,21.767548825424683,0
3.364,36129,72782968,4,0,1,-8.653128361329408,16.967953527286774,0
3.366,36130,72784968,4,0,1,-18.197789058600563,12.016246124819256,0
3.368,36131,72786968,1,0,1,-20.64925949827383,7.189324152575431,0
3.37,36132,72788968,5,0,1,-18.335957548212953,2.691262442952336,0
3.372,36133,72790968,3,0,1,-14.32497074832589,-1.347612804389378,0
3.374,36134,72792968,146,1,1,-11.831716380191132,-4.85617888738183,0
3.376,36135,72794968,0,1,0,-12.584545154978045,-7.783121795895781,0
3.378,36136,72796968,1,1,1,-15.798130531800336,-10.070171295921371,0
3.38,36137,72798968,5,0,1,-19.385014820497624,-11.672755392757377,0
3.382,36138,72800968,1,0,1,-21.578152886426892,-12.591441339017306,0
3.384,36139,72802968,2,0,1,-21.323255002955822,-12.879127910260985,0
3.386,36140,72804968,2,0,1,-18.196319161102245,-12.63629429951466,0
3.388,36141,72806968,5,0,1,-12.453355868129876,-12.004843790876409,0
3.39,36142,72808968,1,0,1,-5.192745121757271,-11.1597901577462,0
3.392,36143,72810968,1,0,1,1.3283218236243153,-10.300220684511581,0
3.394,36144,72812968,206,1,1,4.110856406797269,-9.624083699315861,0
3.396,36145,72814968,0,1,0,1.589240646200417,-9.27048166744392,0
3.398,36146,72816968,4,1,1,-4.814040532009612,-9.280776257348549,0
3.4,36147,72818968,0,0,0,-12.247896983770993,-9.62972763600545,0
3.402,36148,72820968,3,0,1,-18.639896522057295,-10.27619972777796,0
3.404,36149,72822968,9,0,1,-23.10812068264531,-11.181093175918491,0
3.406,36150,72824968,2,0,1,-25.48772351427075,-12.30688835008577,0
3.408,36151,72826968,0,0,0,-25.988197703558292,-13.617139247852716,0
3.41,36152,72828968,0,0,0,-25.12284392584317,-15.078285757506027,0
3.412,36153,72830968,2,0,1,-23.7848953174884,-16.661525547994135,0
3.414,36154,72832968,57,1,1,-23.06754680735044,-18.33760127757921,0
3.416,36155,72834968,0,1,0,-23.59255520547043,-20.061307915455792,0
3.418,36156,72836968,0,1,0,-25.078280156582654,-21.76178229490337,0
3.42,36157,72838968,0,0,0,-26.811857391795744,-23.352632732638323,0
3.422,36158,72840968,2,0,1,-28.28732272163482,-24.747144493095938,0
3.424,36159,72842968,2,0,1,-29.316925128771675,-25.863993791188417,0
3.426,36160,72844968,1,0,1,-29.898445667680054,-26.6282725249843,0
3.428,36161,72846968,0,0,0,-30.136200537454577,-26.973391279792917,0
3.43,36162,72848968,4,0,1,-30.215377224036413,-26.84384828947093,0
3.432,36163,72850968,6,0,1,-30.345984934528893,-26.19734048641707,0
3.434,36164,72852968,10,1,1,-30.621624981221554,-25.005347672095944,0
3.436,36165,72854968,2,1,1,-30.863752606370667,-23.253782675423988,0
3.438,36166,72856968,5,1,1,-30.583810311908692,-20.946302238118207,0
3.44,36167,72858968,4,0,1,-29.068492544077184,-18.109955772564575,0
3.442,36168,72860968,5,0,1,-25.484959042087628,-14.800262622194285,0
3.444,36169,72862968,7,0,1,-19.002928834637324,-11.104463900612888,0
3.446,36170,72864968,0,0,0,-9.044456068117388,-7.1438153564250015,0
3.448,36171,72866968,1,0,1,4.213279643085524,-3.0761663996552535,0
3.45,36172,72868968,2,0,1,19.075344945337278,0.9017935965587576,0
3.452,36173,72870968,5,0,1,31.48040169378377,4.5556327910237755,0
3.454,36174,72872968,409,1,1,35.928853220019164,7.651339299813316,0
3.456,36175,72874968,2,1,1,29.977208404159306,10.059133454554878,0
3.458,36176,72876968,0,1,0,17.3707039605139,11.818067383248618,0
3.46,36177,72878968,3,0,1,4.86244095283409,13.06100961134689,0
3.462,36178,72880968,1,0,1,-2.301748688669594,13.903436670710022,0
3.464,36179,72882968,21,0,1,-1.3821353393941247,14.401675213612116,0
3.466,36180,72884968,0,0,0,8.434355035526906,14.551082780073637,0
3.468,36181,72886968,0,0,0,26.063180427044,14.286764263506447,0
3.47,36182,72888968,5,0,1,47.74888122201415,13.482964587026446,0
3.472,36183,72890968,73,0,1,66.17517422001151,11.962623913929082,0
3.474,36184,72892968,557,1,1,72.51413529929965,9.570660137844255,0
3.476,36185,72894968,1,1,1,63.04230346725794,6.330921840855216,0
3.478,36186,72896968,5,1,1,42.840023790507885,2.526354852097385,0
3.48,36187,72898968,0,0,0,20.756529243110162,-1.4173258177267063,0
3.482,36188,72900968,4,0,1,3.2206414983828933,-5.088376215637413,0
3.484,36189,72902968,9,0,1,-6.855763245942623,-8.150013905069144,0
3.486,36190,72904968,7,0,1,-8.951219581650122,-10.351375597666635,0
3.488,36191,72906968,1,0,1,-4.185405442469701,-11.534437675705233,0
3.49,36192,72908968,5,0,1,4.83647494181052,-11.63997162042235,0
3.492,36193,72910968,2,0,1,13.72200665208192,-10.711191833287993,0
3.494,36194,72912968,345,1,1,17.24957269648057,-8.865219811994981,0
3.496,36195,72914968,3,1,1,13.219292687522612,-6.207071286461787,0
3.498,36196,72916968,2,1,1,5.117852023511152,-2.7738925345402783,0
3.5,36197,72918968,3,0,1,-0.5935054211780333,1.405352142960714,0
3.502,36198,72920968,1,0,1,1.5322125480046438,6.220382472003838,0
3.504,36199,72922968,23,0,1,14.715223009030371,11.449561257164918,0
3.506,36200,72924968,3,0,1,39.90390010506496,16.766095060540614,0
3.508,36201,72926968,6,0,1,75.06110480344665,21.74901712904136,0
3.51,36202,72928968,0,0,0,113.48520103956474,25.893898853453724,0
3.512,36203,72930968,278,0,1,142.68244903610656,28.64909050759507,0
3.514,36204,72932968,815,1,1,149.00186400928646,29.568241261023665,0
3.516,36205,72934968,1,1,1,128.5808674600632,28.56963067323203,0
3.518,36206,72936968,5,1,1,91.52477381354866,26.024998491491225,0
3.52,36207,72938968,4,0,1,52.754692668664106,22.543557634771652,0
3.522,36208,72940968,0,0,0,22.661696116750534,18.72416829042058,0
3.524,36209,72942968,13,0,1,5.867342968225632,15.061988357573512,0
3.526,36210,72944968,0,0,0,3.0529953969808084,11.928212420824746,0
3.528,36211,72946968,0,0,0,12.069885986244316,9.556772793772904,0
3.53,36212,72948968,2,0,1,28.107082751918227,8.035402106997113,0
3.532,36213,72950968,57,0,1,43.416516086863254,7.308130700932455,0
3.534,36214,72952968,500,1,1,49.33067733073252,7.2356337311749535,0
3.536,36215,72954968,0,1,0,42.263515382183215,7.734496304418766,0
3.538,36216,72956968,8,1,1,27.13192147654845,8.853563133595951,0
3.54,36217,72958968,3,0,1,12.889105883044238,10.677975191865277,0
3.542,36218,72960968,0,0,0,6.818696808215014,13.198447728294266,0
3.544,36219,72962968,8,0,1,13.07675642329553,16.266931877731622,0
3.546,36220,72964968,1,0,1,32.88032646836278,19.59893025123678,0
3.548,36221,72966968,4,0,1,64.06460089773243,22.78388174150084,0
3.55,36222,72968968,3,0,1,99.87088320927518,25.30216860815551,0
3.552,36223,72970968,243,0,1,128.16517087734542,26.568217916209353,0
3.554,36224,72972968,763,1,1,135.7114276903828,26.07888127796804,0
3.556,36225,72974968,4,1,1,118.25018441408855,23.662060199969037,0
3.558,36226,72976968,2,1,1,84.47186898100878,19.57154245410942,0
3.56,36227,72978968,1,0,1,47.556207549804185,14.297514927254406,0
3.562,36228,72980968,5,0,1,16.40922117692159,8.343609213646182,0
