time_s,sample_index,timestamp_us,ecg_raw,leads_off,adc_ok,ecg_morph,ecg_qrs,r_peak
0.0,964,2452968,1976,0,1,5.515561558810813,5.027247599089263,0
0.002,965,2454968,2005,0,1,14.93790218831801,4.932646453744535,0
0.004,966,2456968,2019,0,1,21.14873786608725,4.6838051895363595,0
0.006,967,2458968,2029,0,1,21.961205086731034,4.243241329665219,0
0.008,968,2460968,2028,0,1,17.021780180472245,3.6305464022009457,0
0.01,969,2462968,1975,1,1,8.129278956555776,2.9287337525144137,0
0.012,970,2464968,1952,0,1,-1.295578285373443,2.265029035768716,0
0.014,971,2466968,1917,0,1,-7.589649658870965,1.7689489988931508,0
0.016,972,2468968,1929,0,1,-8.367194628752545,1.5269330498042826,0
0.018,973,2470968,1948,0,1,-3.4028299820201013,1.554522150863471,0
0.020001,974,2472969,1977,0,1,5.461678133511018,1.796494693769767,0
0.022,975,2474968,2005,0,1,15.182894322851684,2.151320750835378,0
0.024,976,2476968,2020,0,1,22.66419800468562,2.5074296390869306,0
0.026,977,2478968,2021,0,1,25.747678726019867,2.7778366479088614,0
0.028,978,2480968,2029,0,1,23.81352626142914,2.9235579728100825,0
0.03,979,2482968,1999,1,1,17.994675462059,2.9624794934308456,0
0.032,980,2484968,1961,0,1,10.873388476358492,2.960024698259568,0
0.034,981,2486968,1943,0,1,5.438957316281069,2.999053784209929,0
0.036,982,2488968,1949,0,1,3.7469579966874225,3.141673894815316,0
0.038,983,2490968,1963,0,1,6.1426822807635695,3.404572109634775,0
0.04,984,2492968,1983,0,1,11.359722275419312,3.75725877797486,0
0.042,985,2494968,2004,0,1,17.19954664939308,4.1380960074400335,0
0.044,986,2496968,2013,0,1,21.413086862187992,4.478785082626883,0
0.046,987,2498968,2024,0,1,22.510816789490473,4.728568824015859,0
0.048,988,2500968,2013,0,1,20.332965345460217,4.871357026761845,0
0.05,989,2502968,1979,1,1,16.16429298129208,4.929227323284338,0
0.052,990,2504968,1964,0,1,12.139963191619263,4.94708816865095,0
0.054,991,2506968,1961,0,1,10.18495950139483,4.965247633253591,0
0.056,992,2508968,1971,0,1,11.204132794348169,4.997241938753058,0
0.058,993,2510968,1976,0,1,14.889144412597307,5.0230886839151365,0
0.060001,994,2512969,1995,0,1,19.956087450170436,4.995721560357241,0
0.062,995,2514968,2008,0,1,24.59733013579003,4.855857201345499,0
0.064,996,2516968,2015,0,1,27.059423914691276,4.551518065230361,0
0.066,997,2518968,2018,0,1,26.193146352750592,4.05633594000774,0
0.068,998,2520968,2023,0,1,21.872847887315352,3.3818576280183152,0
0.07,999,2522968,1994,1,1,15.259388412265427,2.5815443954335553,0
0.072,1000,2524968,1959,0,1,8.607218519824526,1.7404334370854073,0
0.074,1001,2526968,1946,0,1,4.342726953290086,0.9469883951763185,0
0.076,1002,2528968,1958,0,1,3.903188079984142,0.2602864109014078,0
0.078,1003,2530968,1965,0,1,7.157930333597573,-0.30755504099833075,0
0.08,1004,2532968,1993,0,1,12.606484429634026,-0.7876349652188752,0
0.082,1005,2534968,1998,0,1,18.024702190626822,-1.2358627251298175,0
0.084,1006,2536968,2019,0,1,21.22553584012982,-1.7087983084425913,0
0.086,1007,2538968,2014,0,1,20.733876332677557,-2.241191997803072,0
0.088,1008,2540968,2015,0,1,16.274901111529342,-2.8306504266355916,0
0.09,1009,2542968,1997,1,1,8.998681513909064,-3.4332631735195704,0
0.092,1010,2544968,1965,0,1,1.3174420117635357,-3.9730266001082937,0
0.094,1011,2546968,1929,0,1,-3.8523668350718117,-4.367293928731445,0
0.096,1012,2548968,1927,0,1,-4.402927307077399,-4.563637270713929,0
0.098,1013,2550968,1963,0,1,-0.16812230972136977,-4.569145167414501,0
0.100001,1014,2552969,1989,0,1,7.026085844234082,-4.451185586742959,0
0.102,1015,2554968,1999,0,1,14.336059849319327,-4.310524026851059,0
0.104,1016,2556968,2022,0,1,19.034772229435905,-4.246612860138413,0
0.106,1017,2558968,2025,0,1,19.362099533304328,-4.328251556950097,0
0.108,1018,2560968,2023,0,1,15.170027522185638,-4.5724184803731855,0
0.11,1019,2562968,1978,1,1,8.177996293718891,-4.937708120150772,0
0.112,1020,2564968,1947,0,1,1.392910819892517,-5.341368860505064,0
0.114,1021,2566968,1933,0,1,-2.26956330344943,-5.696570089902211,0
0.116,1022,2568968,1949,0,1,-1.3526059756981184,-5.949380013998519,0
0.118,1023,2570968,1967,0,1,3.608769866334084,-6.0948047628714495,0
0.12,1024,2572968,1992,0,1,10.482162772825529,-6.167815164849753,0
0.122,1025,2574968,2009,0,1,16.43328190358186,-6.218567100146338,0
0.124,1026,2576968,2023,0,1,18.912579251592966,-6.283199112219061,0
0.126,1027,2578968,2013,0,1,16.467764809379,-6.359836232929249,0
0.128,1028,2580968,2026,0,1,9.258137191657458,-6.3961812267222795,0
0.13,1029,2582968,1973,1,1,-0.747605259725713,-6.291245512665988,0
0.132,1030,2584968,1938,0,1,-10.19296280962681,-5.916760298346776,0
0.134,1031,2586968,1919,0,1,-15.62038650834397,-5.159812220067852,0
0.136,1032,2588968,1928,0,1,-14.967879128355804,-3.9684469174928547,0
0.138,1033,2590968,1951,0,1,-8.329716113649711,-2.3761669299701347,0
0.140001,1034,2592969,1981,0,1,2.266939188374864,-0.4971253449344859,0
0.142,1035,2594968,2009,0,1,13.757503898553512,1.5017676946095166,0
0.144,1036,2596968,2025,0,1,23.157830653791045,3.439800444964817,0
0.146,1037,2598968,2026,0,1,28.484074366810823,5.159328235335984,0
0.148,1038,2600968,2031,0,1,29.234547874661626,6.551009439852832,0
0.15,1039,2602968,2001,1,1,26.418821094251484,7.563812217216708,0
0.152,1040,2604968,1981,0,1,22.087699851881492,8.197915931175597,0
0.154,1041,2606968,1973,0,1,18.40540598071511,8.482760589974383,0
0.156,1042,2608968,1973,0,1,16.734112991361915,8.45257112579764,0
0.158,1043,2610968,1979,0,1,17.184753889821295,8.131609249984063,0
0.16,1044,2612968,2005,0,1,18.708776148646987,7.53279201686057,0
0.162,1045,2614968,2008,0,1,19.665965681335926,6.66866201301281,0
0.164,1046,2616968,2009,0,1,18.58691485365157,5.567671130514419,0
0.166,1047,2618968,2013,0,1,14.730882328153784,4.2855311245599506,0
0.168,1048,2620968,2005,0,1,8.399312316808988,2.908684584797224,0
0.17,1049,2622968,1977,1,1,1.0517269544571572,1.5497761839677013,0
0.172,1050,2624968,1951,0,1,-5.043435042035296,0.33048252001081857,0
0.174,1051,2626968,1939,0,1,-7.715392816878309,-0.6477340017132329,0
0.176,1052,2628968,1942,0,1,-5.912461611344599,-1.3326979983897054,0
0.178,1053,2630968,1973,0,1,-0.24039333435301957,-1.7353343269164034,0
0.180001,1054,2632969,1991,0,1,7.295107524633368,-1.9205240336505354,0
0.182,1055,2634968,2004,0,1,14.115142079495964,-1.980497422357372,0
0.184,1056,2636968,2019,0,1,17.925330031685114,-2.004574038508746,0
0.186,1057,2638968,2021,0,1,17.365282618400304,-2.054110591365671,0
0.188,1058,2640968,2025,0,1,12.521778770006431,-2.144967694818339,0
0.19,1059,2642968,1975,1,1,5.166325389588421,-2.2424377716569284,0
0.192,1060,2644968,1945,0,1,-1.7635370683720848,-2.277935763473786,0
0.194,1061,2646968,1939,0,1,-5.495033548256919,-2.185763176052447,0
0.196,1062,2648968,1945,0,1,-4.713910102023856,-1.9387046166983304,0
0.198,1063,2650968,1979,0,1,0.00839746889162818,-1.5618422670607006,0
0.2,1064,2652968,1984,0,1,6.689933747174747,-1.1217868944507166,0
0.202,1065,2654968,2011,0,1,12.8182451005217,-0.7019275292467373,0
0.204,1066,2656968,2013,0,1,16.179181259550816,-0.375720636327463,0
0.206,1067,2658968,2024,0,1,15.51543916052453,-0.18429107738392,0
0.208,1068,2660968,2015,1,1,11.015391188926477,-0.12181404634494096,0
0.21,1069,2662968,1971,1,1,4.429715216937412,-0.13461236508617605,0
0.212,1070,2664968,1948,0,1,-1.5674034648906074,-0.1411512816772711,0
0.214,1071,2666968,1946,0,1,-4.6448947174270225,-0.06765137857018684,0
0.216,1072,2668968,1959,0,1,-3.837500572247189,0.12197084091228882,0
0.218,1073,2670968,1973,0,1,0.2711434498550316,0.4171955069518948,0
0.220001,1074,2672969,1987,0,1,5.99796881238298,0.7705391930600739,0
0.222,1075,2674968,2007,0,1,11.224996360761056,1.1166897610846438,0
0.224,1076,2676968,2011,0,1,14.088198819191792,1.3947717562106365,0
0.226,1077,2678968,2015,0,1,13.57675630751501,1.5681844472826316,0
0.228,1078,2680968,2008,1,1,9.907936062992283,1.636437788755925,0
0.23,1079,2682968,1979,1,1,4.558567153746975,1.6350540576421,0
0.232,1080,2684968,1957,0,1,-0.2227857092376493,1.6204264758120015,0
0.234,1081,2686968,1949,0,1,-2.378691095013056,1.6428178518249865,0
0.236,1082,2688968,1965,0,1,-0.9398759818623774,1.7216023148577788,0
0.238,1083,2690968,1967,0,1,3.6611867601016597,1.8360883163472141,0
0.24,1084,2692968,1991,0,1,9.814814995933052,1.9325346398657295,0
0.242,1085,2694968,2007,0,1,15.239801947496492,1.941617780244636,0
0.244,1086,2696968,2018,0,1,17.676416480034085,1.8019484151916831,0
0.246,1087,2698968,2035,0,1,15.675639201930293,1.4842529038306882,0
0.248,1088,2700968,2023,1,1,9.363103213043118,1.010293444557397,0
0.25,1089,2702968,1967,1,1,0.7986995062362856,0.45685789539529764,0
0.252,1090,2704968,1941,0,1,-6.70477134526133,-0.0673878873514443,0
0.254,1091,2706968,1925,0,1,-10.174156162950764,-0.4663622442840044,0
0.256,1092,2708968,1956,0,1,-8.368126986879254,-0.6953673900013108,0
0.258,1093,2710968,1963,0,1,-2.123476291117686,-0.7730058155531124,0
0.260001,1094,2712969,1997,0,1,6.20883461377773,-0.7669282356310179,0
0.262,1095,2714968,2007,0,1,13.67164500068733,-0.7658460736557331,0
0.264,1096,2716968,2023,0,1,17.594427240448912,-0.8485901873781485,0
0.266,1097,2718968,2036,0,1,16.3700537104285,-1.056897694208049,0
0.268,1098,2720968,2023,1,1,10.124226890087808,-1.3760027330276172,0
0.27,1099,2722968,1976,1,1,1.0036014000782258,-1.7309413481598324,0
0.272,1100,2724968,1931,0,1,-7.513796677944493,-2.0100224772748656,0
0.274,1101,2726968,1933,0,1,-12.231255229399112,-2.1109757971800653,0
0.276,1102,2728968,1949,0,1,-11.659312048923912,-1.982543131864511,0
0.278,1103,2730968,1959,0,1,-6.3568891451507294,-1.638857413661297,0
0.28,1104,2732968,1987,0,1,1.573938750394481,-1.148865515659209,0
0.282,1105,2734968,2007,0,1,9.290574835309032,-0.6123717313503377,0
0.284,1106,2736968,2023,0,1,14.128135087568522,-0.1295557361655011,0
0.286,1107,2738968,2031,0,1,14.49902158085178,0.2289274901583147,0
0.288,1108,2740968,2019,1,1,10.563023040824556,0.44291847787913396,0
0.29,1109,2742968,1965,1,1,4.3146257488583,0.5453402425842206,0
0.292,1110,2744968,1951,0,1,-1.2965823110536356,0.5991010322874724,0
0.294,1111,2746968,1947,0,1,-3.8352169649497787,0.6587952984483176,0
0.296,1112,2748968,1967,0,1,-2.3914058752108356,0.7423071758832431,0
0.298,1113,2750968,1972,0,1,2.339217475746669,0.8253950994325312,0
0.300001,1114,2752969,1993,0,1,8.526203610131605,0.8532456675321829,0
0.302,1115,2754968,2009,0,1,13.8186837677674,0.7599413329992808,0
0.304,1116,2756968,2019,0,1,16.027407282526596,0.49147524905118645,0
0.306,1117,2758968,2029,0,1,13.837704879337652,0.027911271800615145,0
0.308,1118,2760968,2023,1,1,7.455337752258993,-0.6006475245325746,0
0.31,1119,2762968,1975,1,1,-1.0822553726749353,-1.3115501794419817,0
0.312,1120,2764968,1933,0,1,-8.486854618611119,-1.9910850760741874,0
0.314,1121,2766968,1927,0,1,-11.767103663033202,-2.538171424247643,0
0.316,1122,2768968,1957,0,1,-9.705674150660236,-2.904775027808586,0
0.318,1123,2770968,1965,0,1,-3.2124168460559197,-3.107743017695893,0
0.32,1124,2772968,1991,0,1,5.284008405725605,-3.213342381994583,0
0.322,1125,2774968,2015,0,1,12.70704378924645,-3.309648770378459,0
0.324,1126,2776968,2029,0,1,16.25707496011851,-3.474749534512431,0
0.326,1127,2778968,2039,0,1,14.369587848052108,-3.746059072394751,0
0.328,1128,2780968,2020,1,1,7.481479665001489,-4.099593826350817,0
0.33,1129,2782968,1967,1,1,-1.8235241219123122,-4.450084322275473,0
0.332,1130,2784968,1929,0,1,-9.756947855419572,-4.680361378437404,0
0.334,1131,2786968,1927,0,1,-13.100085512277353,-4.690943912419202,0
0.336,1132,2788968,1949,0,1,-10.660742251003729,-4.441350414330194,0
0.338,1133,2790968,1976,0,1,-3.5306119085633902,-3.9608059453694513,0
0.340001,1134,2792969,1995,0,1,5.675066499601948,-3.330006190932066,0
0.342,1135,2794968,2013,0,1,13.868753552926371,-2.6498740440876514,0
0.344,1136,2796968,2035,0,1,18.410511806376363,-2.0097044277327063,0
0.346,1137,2798968,2032,0,1,17.901539869609906,-1.4594935749325064,0
0.348,1138,2800968,2019,1,1,12.758723980474548,-0.9924515311991575,0
0.35,1139,2802968,1975,1,1,5.192411607405398,-0.5473058125286179,0
0.352,1140,2804968,1948,0,1,-1.673087668530549,-0.03482397057895481,0
0.354,1141,2806968,1949,0,1,-5.197919939798448,0.621587988912216,0
0.356,1142,2808968,1964,0,1,-4.263001186942753,1.4534336219934527,0
0.358,1143,2810968,1977,0,1,0.6071341179418117,2.4378499761475,0
0.36,1144,2812968,1993,0,1,7.757510148180254,3.507934109402811,0
0.362,1145,2814968,2007,0,1,15.045496555605672,4.572006665734399,0
0.364,1146,2816968,2021,0,1,20.421628594177534,5.535485939573613,0
0.366,1147,2818968,2037,0,1,22.497132627785987,6.322938222796962,0
0.368,1148,2820968,2020,1,1,21.08381287826331,6.8967491843277635,0
0.37,1149,2822968,1995,1,1,17.362283280939266,7.263436476337938,0
0.372,1150,2824968,1973,0,1,13.317723671801105,7.4601890973985725,0
0.374,1151,2826968,1972,0,1,10.695201670661628,7.528376417297517,0
0.376,1152,2828968,1998,0,1,10.250065178039623,7.492298072674849,0
0.378,1153,2830968,1981,0,1,11.750883820761082,7.354874368883834,0
0.380001,1154,2832969,1999,0,1,14.344255069894874,7.103858148250927,0
0.382,1155,2834968,2007,0,1,16.824164270727962,6.719301871609611,0
0.384,1156,2836968,2013,0,1,17.9400701842321,6.183595042671816,0
0.386,1157,2838968,2025,0,1,16.858241178517968,5.494447213811278,0
0.388,1158,2840968,2012,1,1,13.619846594897586,4.675809351162621,0
0.39,1159,2842968,1989,1,1,9.325797807072313,3.780140912609092,0
0.392,1160,2844968,1967,0,1,5.729169893346737,2.8758323258506118,0
0.394,1161,2846968,1961,0,1,4.316947120946347,2.0230860655388545,0
0.396,1162,2848968,1989,0,1,5.518238902014193,1.2534309044279284,0
0.398,1163,2850968,1989,0,1,8.630338622067617,0.5667166732284663,0
0.4,1164,2852968,1995,0,1,12.294040949749286,-0.057089903251811513,0
0.402,1165,2854968,2005,0,1,14.922578788128472,-0.6441080796886869,0
0.404,1166,2856968,2021,0,1,15.02255601500668,-1.2141178958620413,0
0.406,1167,2858968,2026,0,1,11.714238073278791,-1.7659904439477936,0
0.408,1168,2860968,2019,1,1,5.398334828316143,-2.26431866852439,0
0.41,1169,2862968,1961,1,1,-1.9741867021556567,-2.639197768787386,0
0.412,1170,2864968,1949,0,1,-7.605943486512752,-2.809720722170694,0
0.414,1171,2866968,1941,0,1,-9.25306116585429,-2.7226117476641583,0
0.416,1172,2868968,1967,0,1,-6.262527902029332,-2.380837493836988,0
0.418,1173,2870968,1975,0,1,0.3304762907019807,-1.8473426040937833,0
0.420001,1174,2872969,2006,0,1,8.368574825660122,-1.2282972326936585,0
0.422,1175,2874968,2014,0,1,15.367339174412782,-0.6460211028867076,0
0.424,1176,2876968,2025,0,1,19.275522960428987,-0.2102154283174935,0
0.426,1177,2878968,2037,0,1,19.07442373174948,0.006036915070674831,0
0.428,1178,2880968,2005,1,1,15.159621994511127,-0.018930700143259538,0
0.43,1179,2882968,1995,1,1,9.27538780916043,-0.25595310981043995,0
0.432,1180,2884968,1959,0,1,3.830887311231778,-0.6437822317063898,0
0.434,1181,2886968,1956,0,1,0.8473692521729905,-1.1184181235674022,0
0.436,1182,2888968,1975,0,1,1.066658417936857,-1.6388617644935817,0
0.438,1183,2890968,1979,0,1,3.732463696332069,-2.1960815383062364,0
0.44,1184,2892968,1997,0,1,7.018024232937631,-2.8044893040406143,0
0.442,1185,2894968,2013,0,1,8.690859699559056,-3.4850320899471803,0
0.444,1186,2896968,2027,0,1,6.903160132121463,-4.244844872414676,0
0.446,1187,2898968,2022,0,1,1.078897164438982,-5.057412999869234,0
0.448,1188,2900968,1983,1,1,-7.50595816117109,-5.853903618353833,0
0.45,1189,2902968,1946,1,1,-16.021913270555196,-6.537619825502409,0
0.452,1190,2904968,1929,0,1,-21.316982735181227,-7.020513935968862,0
0.454,1191,2906968,1931,0,1,-21.347671644705933,-7.262917526603442,0
0.456,1192,2908968,1955,0,1,-15.982612685820346,-7.295341992385321,0
0.458,1193,2910968,1976,0,1,-6.911025780585931,-7.213953487542064,0
0.460001,1194,2912969,2005,0,1,3.0970851189207522,-7.154473000478657,0
0.462,1195,2914968,2021,0,1,11.179897346513595,-7.255161853341871,0
0.464,1196,2916968,2023,0,1,15.282494841811964,-7.620141840693783,0
0.466,1197,2918968,2021,0,1,14.697717015779867,-8.29307242606909,0
0.468,1198,2920968,2006,1,1,10.162440957656269,-9.246406074708426,0
0.47,1199,2922968,1989,0,1,3.592476490568497,-10.385980112034549,0
0.472,1200,2924968,1957,0,1,-2.5145672115379956,-11.569436910723537,0
0.474,1201,2926968,1952,0,1,-5.983955893551059,-12.635142941432807,0
0.476,1202,2928968,1956,0,1,-5.859541342430916,-13.431589240668828,0
0.478,1203,2930968,1976,0,1,-2.793011263098326,-13.834163654773914,0
0.48,1204,2932968,1995,0,1,1.2664206432989236,-13.743990869418546,0
0.482,1205,2934968,2011,0,1,3.8723687003912906,-13.073871994090087,0
0.484,1206,2936968,2013,0,1,3.007440519981146,-11.731345099538531,0
0.486,1207,2938968,2011,0,1,-2.185641353290645,-9.608727230635935,0
0.488,1208,2940968,1998,1,1,-11.00688252066401,-6.585663207115035,0
0.49,1209,2942968,1965,1,1,-21.192046586602167,-2.5461651189067545,0
0.492,1210,2944968,1928,0,1,-29.477756041216352,2.5879543904678464,0
0.494,1211,2946968,1919,0,1,-32.763197702343234,8.81094876914519,0
0.496,1212,2948968,1938,0,1,-29.286640736572984,15.991433181129242,0
0.498,1213,2950968,1964,0,1,-19.03879766597868,23.855763834078775,0
0.500001,1214,2952969,1997,0,1,-3.2635989832587846,32.00263154098749,0
0.502,1215,2954968,2009,0,1,16.429156736827522,39.93885456750716,0
0.504,1216,2956968,2029,0,1,38.694695826310344,47.12175132872583,0
0.506,1217,2958968,2028,0,1,62.48585281259265,52.99849172338864,0
0.508,1218,2960968,2026,1,1,86.4346674166856,57.038586746146414,0
0.51,1219,2962968,2080,0,1,107.88957584354482,58.76293827021692,0
0.512,1220,2964968,2159,0,1,122.68674286262022,57.78733718104624,0
0.514,1221,2966968,2172,0,1,126.57140091355281,53.89310618765034,0
0.516,1222,2968968,2139,0,1,117.31996984277913,47.09889343202871,0
0.518,1223,2970968,2087,0,1,95.66775144212932,37.68924513405195,0
0.52,1224,2972968,2035,0,1,64.5382383417008,26.186312305881433,0
0.522,1225,2974968,1995,0,1,27.542435021028126,13.284881160908036,0
0.524,1226,2976968,1974,0,1,-12.155774451536303,-0.22273058754458575,0
0.526,1227,2978968,1977,0,1,-51.93963322842405,-13.512276108529946,0
0.528,1228,2980968,1943,1,1,-88.7291461537135,-25.776079918436132,0
0.53,1229,2982968,1851,0,1,-117.87945512490501,-36.26900577639583,0
0.532,1230,2984968,1765,0,1,-133.71523235056057,-44.379673858047454,1
0.534,1231,2986968,1764,0,1,-132.10537321461788,-49.72667080325843,0
0.536,1232,2988968,1830,0,1,-113.12821982178865,-52.23228632032781,0
0.538,1233,2990968,1903,0,1,-81.60757004895635,-52.12394917334281,0
0.540001,1234,2992969,1975,0,1,-45.39126064811698,-49.86150263806698,0
0.542,1235,2994968,2025,0,1,-12.801107219198009,-46.026722582394626,0
0.544,1236,2996968,2067,0,1,9.601250149656952,-41.21089140351421,0
0.546,1237,2998968,2072,0,1,18.59342627887426,-35.92128750333181,0
0.548,1238,3000968,2037,1,1,15.054130945405005,-30.521127002563247,0
0.55,1239,3002968,1967,0,1,3.485292876098172,-25.21711962975743,0
0.552,1240,3004968,1927,0,1,-9.885230335335994,-20.09730129296293,0
0.554,1241,3006968,1915,0,1,-19.61535982853297,-15.196513303212267,0
0.556,1242,3008968,1928,0,1,-22.843440733591017,-10.553562086702408,0
0.558,1243,3010968,1957,0,1,-19.688956228530618,-6.237861435831972,0
0.56,1244,3012968,1977,0,1,-12.51956489485287,-2.3455723710784007,0
0.562,1245,3014968,2011,0,1,-4.705591931574089,1.0230652309106425,0
0.564,1246,3016968,2023,0,1,0.6906213709358324,3.7933513761946003,0
0.566,1247,3018968,2025,0,1,2.029281299861105,5.94280657478186,0
0.568,1248,3020968,1997,1,1,-0.33482966682578574,7.513714024554469,0
0.57,1249,3022968,1965,0,1,-4.364154787930005,8.602527914760952,0
0.572,1250,3024968,1951,0,1,-7.469158309848015,9.32812066608543,0
0.574,1251,3026968,1959,0,1,-7.801217913730336,9.794986055220452,0
0.576,1252,3028968,1965,0,1,-4.964623129967183,10.07001781673213,0
0.578,1253,3030968,1989,0,1,0.01789534597929876,10.179004757028716,0
0.580001,1254,3032969,2009,0,1,5.261374245741337,10.119049374814047,0
0.582,1255,3034968,2009,0,1,8.826291895454442,9.879980610423102,0
0.584,1256,3036968,2019,0,1,9.41302133614536,9.464623834000708,0
0.586,1257,3038968,2024,0,1,6.796588049240506,8.901958140791937,0
0.588,1258,3040968,1983,1,1,2.038595352770302,8.251763162388226,0
0.59,1259,3042968,1968,0,1,-2.838905327806449,7.594162532187705,0
0.592,1260,3044968,1961,0,1,-5.797160466895917,7.004100723871309,0
0.594,1261,3046968,1961,0,1,-5.692708158281148,6.526546773170978,0
0.596,1262,3048968,1977,0,1,-2.6586475363615945,6.165311802213065,0
0.598,1263,3050968,1995,0,1,2.052741716565414,5.887359903647283,0
0.6,1264,3052968,2005,0,1,6.6279587325906375,5.639622148766287,0
0.602,1265,3054968,2005,0,1,9.333962263416073,5.370073910393748,0
0.604,1266,3056968,2025,0,1,8.984443170196332,5.045096228816338,0
0.606,1267,3058968,2020,0,1,5.360327656914452,4.662880339308599,0
0.608,1268,3060968,1981,1,1,-0.46756455197945623,4.259962057598274,0
0.61,1269,3062968,1972,0,1,-6.423293744979494,3.900579717309347,0
0.612,1270,3064968,1952,0,1,-10.330245888190344,3.65031903246872,0
0.614,1271,3066968,1955,0,1,-10.819970014783912,3.549369034870252,0
0.616,1272,3068968,1971,0,1,-7.825463428578686,3.5970608893345775,0
0.618,1273,3070968,1979,0,1,-2.5497728107611746,3.7520026603187606,0
0.620001,1274,3072969,2009,0,1,3.006216711786438,3.9462875043451633,0
0.622,1275,3074968,2011,0,1,6.759726465607857,4.108031003424964,0
0.624,1276,3076968,2021,0,1,7.284312230593494,4.184755449154231,0
0.626,1277,3078968,2012,0,1,4.328651274440296,4.159615936030516,0
0.628,1278,3080968,1998,1,1,-1.0111288120875432,4.055741034816846,0
0.63,1279,3082968,1960,0,1,-6.584237304398213,3.9259796501811106,0
0.632,1280,3084968,1946,0,1,-10.06754768761823,3.827366103664037,0
0.634,1281,3086968,1960,0,1,-10.082744116125287,3.7906497475902885,0
0.636,1282,3088968,1975,0,1,-6.767056439705659,3.803842381895339,0
0.638,1283,3090968,1983,0,1,-1.5295007392624438,3.8172150968050294,0
0.64,1284,3092968,2004,0,1,3.5535064481320964,3.7606741328839473,0
0.642,1285,3094968,2022,0,1,6.406810616021767,3.5655145342212067,0
0.644,1286,3096968,2020,0,1,5.713334171813621,3.1877558703648674,0
0.646,1287,3098968,2013,0,1,1.5447169193556327,2.6256095041465657,0
0.648,1288,3100968,1977,1,1,-4.528165109971743,1.921300540106437,0
0.65,1289,3102968,1960,0,1,-10.027052916860793,1.1437817329248663,0
0.652,1290,3104968,1943,0,1,-12.641108492221287,0.3590795505828761,0
0.654,1291,3106968,1952,0,1,-11.253775172464751,-0.3974830968131431,0
0.656,1292,3108968,1976,0,1,-6.423048097822594,-1.1338520777901588,0
0.658,1293,3110968,1991,0,1,-0.12023354769108696,-1.8930923950254739,0
0.660001,1294,3112969,2012,0,1,5.0429395547540246,-2.729964972274283,0
0.662,1295,3114968,2020,0,1,6.696262449336106,-3.6832603036001563,0
0.664,1296,3116968,2023,0,1,3.4844352808276247,-4.752283486392237,0
0.666,1297,3118968,2019,0,1,-4.344677129935931,-5.882708929036287,0
0.668,1298,3120968,1971,1,1,-14.712861908996643,-6.96733033298597,0
0.67,1299,3122968,1939,0,1,-24.229427986225158,-7.868741908618389,0
0.672,1300,3124968,1915,0,1,-29.526082130120628,-8.461986771679692,0
0.674,1301,3126968,1927,0,1,-28.72480776532402,-8.67836871142558,0
0.676,1302,3128968,1955,0,1,-22.178810887397244,-8.52824373744308,0
0.678,1303,3130968,1981,0,1,-12.173721153394373,-8.093694855787927,0
0.68,1304,3132968,2005,0,1,-1.940875463526016,-7.498553563376927,0
0.682,1305,3134968,2020,0,1,5.436708797015527,-6.870792263572058,0
0.684,1306,3136968,2027,0,1,7.899489756986841,-6.308855128411659,0
0.686,1307,3138968,2031,0,1,5.021018405294609,-5.857804868184104,0
0.688,1308,3140968,1989,1,1,-1.7251905158911987,-5.500138665861148,0
0.69,1309,3142968,1958,0,1,-9.387085236976388,-5.168768958363245,0
0.692,1310,3144968,1935,0,1,-14.77074093615914,-4.782352409784464,0
0.694,1311,3146968,1951,0,1,-15.833178297570859,-4.2854118002659245,0
0.696,1312,3148968,1963,0,1,-12.3592558701863,-3.671116921593992,0
0.698,1313,3150968,1977,0,1,-5.759127742774519,-2.980237567702145,0
0.700001,1314,3152969,2008,0,1,1.5878551832049204,-2.284184109041078,0
0.702,1315,3154968,2021,0,1,7.177017313425297,-1.6595002685371556,0
0.704,1316,3156968,2029,0,1,9.297950272249675,-1.15971871296588,0
0.706,1317,3158968,2019,0,1,7.72131729037218,-0.7945562434733597,0
0.708,1318,3160968,1979,1,1,3.778119171036833,-0.5264980270810407,0
0.71,1319,3162968,1972,0,1,-0.34603242716257876,-0.28863934602377306,0
0.712,1320,3164968,1967,0,1,-2.705171770785416,-0.013969370590733554,0
0.714,1321,3166968,1975,0,1,-2.3317124153940787,0.3418743287723771,0
0.716,1322,3168968,1981,0,1,0.6269814367850746,0.7922745137401748,0
0.718,1323,3170968,1997,0,1,5.140191829918635,1.3227014463399085,0
0.72,1324,3172968,2005,0,1,9.699698662215512,1.9011907282464282,0
0.722,1325,3174968,2014,0,1,12.784857003086024,2.492405372428099,0
0.724,1326,3176968,2023,0,1,13.300570660582705,3.0712737482482937,0
0.726,1327,3178968,2022,0,1,10.986025557550649,3.633827410806729,0
0.728,1328,3180968,1997,1,1,6.675042757584146,4.201256506841707,0
0.73,1329,3182968,1983,0,1,2.101186307116576,4.810860818190552,0
0.732,1330,3184968,1960,0,1,-0.8188439854153176,5.4940105079254735,0
0.734,1331,3186968,1979,0,1,-0.8325176806886949,6.25159613247076,0
0.736,1332,3188968,1981,0,1,2.203314865721631,7.040497603261537,0
0.738,1333,3190968,2004,0,1,7.476001282199482,7.776955198570417,0
0.740001,1334,3192969,2006,0,1,13.706611054440266,8.351946436656933,0
0.742,1335,3194968,2023,0,1,19.640973015966345,8.650702160314449,0
0.744,1336,3196968,2025,0,1,24.41909544885959,8.571814080225678,0
0.746,1337,3198968,2014,0,1,27.75715601666017,8.042468048120844,0
0.748,1338,3200968,2009,1,1,29.7808575768478,7.025034734729717,0
0.75,1339,3202968,2023,0,1,30.606248677200952,5.516156583069412,0
0.752,1340,3204968,2023,0,1,30.13475777659856,3.547362932687666,0
0.754,1341,3206968,2025,0,1,28.228449122892897,1.1903911303156072,0
0.756,1342,3208968,2009,0,1,24.923105092459174,-1.439818826298132,0
0.758,1343,3210968,2008,0,1,20.39098965678204,-4.190406795019344,0
0.76,1344,3212968,1999,0,1,14.734778620386454,-6.88250267657002,0
0.762,1345,3214968,2003,0,1,7.869476146567151,-9.324359398613085,0
0.764,1346,3216968,2013,0,1,-0.29958891093987905,-11.321253986885255,0
0.766,1347,3218968,2007,0,1,-9.335413124212927,-12.680659442435505,0
0.768,1348,3220968,1956,1,1,-17.785598312824693,-13.220685406829825,0
0.77,1349,3222968,1945,0,1,-23.505273946131506,-12.795325331012222,0
0.772,1350,3224968,1938,0,1,-24.723690974273854,-11.332587118072338,0
0.774,1351,3226968,1971,0,1,-20.862605816091943,-8.862390718920867,0
0.776,1352,3228968,1972,0,1,-12.499675134025694,-5.519323083332079,0
0.778,1353,3230968,1988,0,1,-0.8615426128468515,-1.526719116474881,0
0.780001,1354,3232969,2010,0,1,12.572715598091394,2.825674892860711,0
0.782,1355,3234968,2023,0,1,26.334098668732643,7.207921907442849,0
0.784,1356,3236968,2040,0,1,39.23902916588174,11.280265884805097,0
0.786,1357,3238968,2022,1,1,50.49052296894408,14.721295675212247,0
0.788,1358,3240968,2034,1,1,59.34163940530908,17.24643245027075,0
0.79,1359,3242968,2076,0,1,64.64774087021945,18.62142024400093,0
0.792,1360,3244968,2079,0,1,65.10817025116094,18.684906710022496,0
0.794,1361,3246968,2073,0,1,60.15891433128351,17.3772871530657,0
0.796,1362,3248968,2041,0,1,50.55071848962278,14.754755244181762,0
0.798,1363,3250968,2017,0,1,38.08943831305771,10.977447157815188,0
0.8,1364,3252968,1997,0,1,24.833771936964116,6.278765787001202,0
0.802,1365,3254968,1995,0,1,12.341786884503168,0.9305317489456044,0
0.804,1366,3256968,2003,0,1,1.4525517185171672,-4.782988212114402,0
0.806,1367,3258968,1999,1,1,-7.292494546965084,-10.57736947104852,0
0.808,1368,3260968,1957,1,1,-13.114631191478393,-16.175341811419823,0
0.81,1369,3262968,1959,0,1,-15.115837202383418,-21.32309574146623,0
0.812,1370,3264968,1958,0,1,-12.97639171743855,-25.812909380072494,0
0.814,1371,3266968,1979,0,1,-7.425585647894552,-29.495064178695536,0
0.816,1372,3268968,1993,0,1,-0.11133807766587545,-32.27152203004897,0
0.818,1373,3270968,1997,0,1,6.8652761983702,-34.07810268472588,0
0.820001,1374,3272969,2019,0,1,11.406482490926438,-34.86489795427802,0
0.822,1375,3274968,2019,0,1,11.83062322977954,-34.579261358149935,0
0.824,1376,3276968,2030,0,1,7.36044509633581,-33.152567001719234,0
0.826,1377,3278968,2015,1,1,-1.3726991326209372,-30.494586353805456,0
0.828,1378,3280968,1963,1,1,-12.162591686862317,-26.503454680067055,0
0.83,1379,3282968,1955,0,1,-21.83089438765652,-21.098278574115426,0
0.832,1380,3284968,1929,0,1,-27.383802938695524,-14.266147294251578,0
0.834,1381,3286968,1957,0,1,-26.93832714677095,-6.102535213754272,0
0.836,1382,3288968,1967,0,1,-19.92799791342395,3.169914875719888,0
0.838,1383,3290968,1988,0,1,-6.677806665406411,13.206080820248363,0
0.84,1384,3292968,2009,0,1,12.18014760863724,23.55866635605444,0
0.842,1385,3294968,2014,0,1,36.026074591858986,33.70551175974558,0
0.844,1386,3296968,2037,0,1,64.12039131073266,43.07911487396216,0
0.846,1387,3298968,2015,1,1,94.91084142144773,51.094746120449656,0
0.848,1388,3300968,2073,1,1,124.8673523505961,57.17695220314837,0
0.85,1389,3302968,2204,0,1,147.96507815779646,60.80300618296765,0
0.852,1390,3304968,2248,0,1,157.4841878310393,61.589473930066895,1
0.854,1391,3306968,2224,0,1,149.51226373011457,59.39968550517751,0
0.856,1392,3308968,2133,0,1,125.20323830793248,54.403503699858376,0
0.858,1393,3310968,2059,0,1,90.11941330826696,47.05041027613025,0
0.860001,1394,3312969,1992,0,1,51.62923601723962,37.97698834645385,0
0.862,1395,3314968,1963,0,1,16.241262442475517,27.894891434502405,0
0.864,1396,3316968,1964,0,1,-11.874496583778395,17.496171157051627,0
0.866,1397,3318968,1951,1,1,-30.905893827192152,7.392460861371692,0
0.868,1398,3320968,1939,1,1,-40.6221626723744,-1.9174623162418634,0
0.87,1399,3322968,1935,0,1,-41.769459608468836,-10.06702449106092,0
0.872,1400,3324968,1944,0,1,-35.93174857815931,-16.83298977959829,0
0.874,1401,3326968,1966,0,1,-25.493971901950765,-22.13233453230647,0
0.876,1402,3328968,1992,0,1,-13.342171264442335,-26.00046183006635,0
0.878,1403,3330968,1996,0,1,-2.3011414075277195,-28.555085008607826,0
0.88,1404,3332968,2014,0,1,5.374001654572821,-29.957264526791697,0
0.882,1405,3334968,2012,0,1,8.278131469709994,-30.378262687358227,0
0.884,1406,3336968,2031,0,1,6.076668071069255,-29.97322233639307,0
0.886,1407,3338968,2003,1,1,-0.21021261860595608,-28.862068027075264,0
0.888,1408,3340968,1971,1,1,-8.19156870107977,-27.125049874203757,0
0.89,1409,3342968,1944,0,1,-14.824077540492924,-24.820641350202447,0
0.892,1410,3344968,1943,0,1,-17.64426753221545,-22.01774281923411,0
0.894,1411,3346968,1959,0,1,-15.701551700291528,-18.821401314850004,0
0.896,1412,3348968,1972,0,1,-9.69952974918819,-15.378356019949628,0
0.898,1413,3350968,1991,0,1,-1.5330426679672478,-11.864364514055037,0
0.900001,1414,3352969,2015,0,1,6.393455118097966,-8.461747050071207,0
0.902,1415,3354968,2024,0,1,11.917378813852347,-5.332860009512023,0
0.904,1416,3356968,2029,0,1,13.820850047476625,-2.595451751172323,0
0.906,1417,3358968,2012,1,1,12.229494855549287,-0.3081818488150905,0
0.908,1418,3360968,1995,1,1,8.502134032798038,1.5278617719252114,0
0.91,1419,3362968,1973,0,1,4.60403682182768,2.9517875312619415,0
0.912,1420,3364968,1973,0,1,2.223341830926193,4.016974303096132,0
0.914,1421,3366968,1981,0,1,2.092083000380917,4.768815270424264,0
0.916,1422,3368968,1995,0,1,3.867143774369044,5.235848699025647,0
0.918,1423,3370968,1995,0,1,6.491470744975787,5.433983758533006,0
0.92,1424,3372968,2006,0,1,8.647348726441717,5.37579842265457,0
0.922,1425,3374968,2019,0,1,9.141097764459788,5.080194319649344,0
0.924,1426,3376968,2011,0,1,7.3252422760842215,4.582473996568025,0
0.926,1427,3378968,2005,1,1,3.440775323923072,3.940713691345136,0
0.928,1428,3380968,1991,1,1,-1.3686968866387126,3.23258320185887,0
0.93,1429,3382968,1963,0,1,-5.424388880455215,2.5419450554590117,0
0.932,1430,3384968,1966,0,1,-7.196568228644299,1.938279516362508,0
0.934,1431,3386968,1964,0,1,-6.011010503442451,1.457294075528095,0
0.936,1432,3388968,1980,0,1,-2.373717452154942,1.0929559434330458,0
0.938,1433,3390968,1996,0,1,2.188015108447461,0.8039219270335338,0
0.940001,1434,3392969,2019,0,1,5.6874188540658,0.5319033940704649,0
0.942,1435,3394968,2015,0,1,6.479544617251301,0.22628272114301984,0
0.944,1436,3396968,2015,0,1,3.936111297760924,-0.1353672449778518,0
0.946,1437,3398968,1995,1,1,-1.3147811462858296,-0.5395319391165316,0
0.948,1438,3400968,1983,1,1,-7.598881407571959,-0.9430786933426616,0
0.95,1439,3402968,1957,0,1,-12.73981633788484,-1.2904090857216706,0
0.952,1440,3404968,1943,0,1,-14.853796208780976,-1.5371843234584877,0
0.954,1441,3406968,1961,0,1,-13.173274150632686,-1.6728688911922864,0
0.956,1442,3408968,1973,0,1,-8.419073435652965,-1.7297522140559791,0
0.958,1443,3410968,1991,0,1,-2.499834705556072,-1.7729473879315614,0
0.96,1444,3412968,2015,0,1,2.190984083930095,-1.8778221657002985,0
0.962,1445,3414968,2015,0,1,3.6043461724307395,-2.1033078465099972,0
0.964,1446,3416968,2019,0,1,0.773877439130608,-2.4691280520123957,0
0.966,1447,3418968,2009,1,1,-5.739764568046748,-2.9441447636027567,0
0.968,1448,3420968,1967,1,1,-13.827628867161657,-3.449860689074439,0
0.97,1449,3422968,1940,0,1,-20.481613389739966,-3.883005980651804,0
0.972,1450,3424968,1927,0,1,-23.07931601688795,-4.153181491651407,0
0.974,1451,3426968,1943,0,1,-20.610034355147913,-4.2172241403225295,0
0.976,1452,3428968,1971,0,1,-14.108248184328566,-4.091815242601011,0
0.978,1453,3430968,1993,0,1,-6.1482285587129955,-3.8398880360256387,0
0.980001,1454,3432969,2012,0,1,0.18520198704089452,-3.5405957482680814,0
0.982,1455,3434968,2026,0,1,2.351901895865975,-3.2566399709414307,0
0.984,1456,3436968,2025,0,1,-0.7732031162841775,-3.0079345726301154,0
0.986,1457,3438968,2007,1,1,-8.33369721624501,-2.7579064689218287,0
0.988,1458,3440968,1959,1,1,-17.534291487562633,-2.4201212081627985,0
0.99,1459,3442968,1915,0,1,-24.64255522737127,-1.8906609712699392,0
0.992,1460,3444968,1927,0,1,-26.710004080336063,-1.097082020179661,0
0.994,1461,3446968,1948,0,1,-22.902149280592447,-0.03628463984379726,0
0.996,1462,3448968,1971,0,1,-14.585007649920552,1.2200789918922612,0
0.998,1463,3450968,1999,0,1,-4.48595085079611,2.547797460242399,0
1.0,1464,3452968,2013,0,1,4.362834356366802,3.8038910744185372,0
1.002,1465,3454968,2028,0,1,9.544767021279268,4.860749757400448,0
1.004,1466,3456968,2031,0,1,9.945918862151963,5.633866129709604,0
1.006,1467,3458968,2008,1,1,6.134996296015286,6.09781749313895,0
1.008,1468,3460968,1977,1,1,0.18414310486364016,6.283708752512702,0
1.01,1469,3462968,1959,0,1,-5.213644586811077,6.25606538603602,0
1.012,1470,3464968,1957,0,1,-7.908982835605062,6.080621165523608,0
1.014,1471,3466968,1963,0,1,-7.094263406658838,5.799888240385597,0
1.016,1472,3468968,1980,0,1,-3.4666861729015466,5.425155321888839,0
1.018,1473,3470968,1993,0,1,1.1242485991225948,4.943874128751233,0
1.020001,1474,3472969,2019,0,1,4.3527647186631775,4.337624798984946,0
1.022,1475,3474968,2021,0,1,4.281225761267764,3.6051624577465553,0
1.024,1476,3476968,2015,0,1,0.1691132805032396,2.7821853049333343,0
1.026,1477,3478968,1997,1,1,-7.1306072789897,1.947871628077821,0
1.028,1478,3480968,1966,1,1,-15.370697549745294,1.2135284478213566,0
1.03,1479,3482968,1941,0,1,-21.677507833159915,0.6953066209223264,0
1.032,1480,3484968,1930,0,1,-23.67986893215592,0.4786563907098511,0
1.034,1481,3486968,1945,0,1,-20.520401698579164,0.5884582886935106,0
1.036,1482,3488968,1971,0,1,-13.218314977905182,0.9789624409670554,0
1.038,1483,3490968,1994,0,1,-4.222268013198173,1.5480244224723123,0
1.04,1484,3492968,2020,0,1,3.5483279485906207,2.1681458949913957,0
1.042,1485,3494968,2025,0,1,7.7487047568743135,2.722074414331147,0
1.044,1486,3496968,2021,0,1,7.396354483593704,3.131530882669045,0
1.046,1487,3498968,2007,1,1,3.161798105617205,3.3705976999481813,0
1.048,1488,3500968,1976,1,1,-2.9052599237168604,3.4608040746296997,0
1.05,1489,3502968,1955,0,1,-8.176161977792164,3.449643703550561,0
1.052,1490,3504968,1950,0,1,-10.539607375320902,3.380219162560881,0
1.054,1491,3506968,1965,0,1,-9.255629895961006,3.2666711835615145,0
1.056,1492,3508968,1983,0,1,-5.108548395118195,3.087698983212238,0
1.058,1493,3510968,1989,0,1,0.06657528731738971,2.797906377718843,0
1.060001,1494,3512969,2011,0,1,4.053948711082172,2.347365201606608,0
1.062,1495,3514968,2023,0,1,4.93434180657899,1.7028430398659378,0
1.064,1496,3516968,2024,0,1,1.826949820803991,0.8683612770360334,0
1.066,1497,3518968,1995,1,1,-4.548607007981984,-0.10268067138124914,0
1.068,1498,3520968,1968,0,1,-11.97536171110195,-1.114653540317744,0
1.07,1499,3522968,1935,0,1,-17.648341526186094,-2.057716752064814,0
1.072,1500,3524968,1941,0,1,-19.46875185924718,-2.844951568335899,0
1.074,1501,3526968,1959,0,1,-16.96948120075539,-3.4394435123426383,0
1.076,1502,3528968,1977,0,1,-11.351645392050926,-3.857837893028698,0
1.078,1503,3530968,1989,0,1,-4.841925857423138,-4.153747491991237,0
1.08,1504,3532968,2013,0,1,0.09986179773884452,-4.393277237661119,0
1.082,1505,3534968,2023,0,1,1.5662628282332953,-4.629266693214214,0
1.084,1506,3536968,2015,0,1,-1.0412144249357205,-4.878584837178508,0
1.086,1507,3538968,1983,1,1,-6.653476390601705,-5.112721663396288,0
1.088,1508,3540968,1967,0,1,-12.9362717600671,-5.269734071496762,0
1.09,1509,3542968,1945,0,1,-17.259182983262534,-5.2820695929263835,0
1.092,1510,3544968,1941,0,1,-17.732613094945506,-5.106844021354725,0
1.094,1511,3546968,1956,0,1,-13.949670307831699,-4.747323961715583,0
1.096,1512,3548968,1983,0,1,-7.141391761596456,-4.256936530814017,0
1.098,1513,3550968,2004,0,1,0.37465816881914016,-3.72282981095966,0
1.1,1514,3552968,2015,0,1,6.138566760304791,-3.237077451017505,0
1.102,1515,3554968,2014,0,1,8.365962058324339,-2.869348203585176,0
1.104,1516,3556968,2025,0,1,6.406731726678028,-2.6494850721385443,0
1.106,1517,3558968,2007,1,1,0.9779317456773367,-2.560202385700616,0
1.108,1518,3560968,1967,0,1,-5.899671208486259,-2.5422855876340402,0
1.11,1519,3562968,1955,0,1,-11.609593603013588,-2.5179199941161734,0
1.112,1520,3564968,1949,0,1,-14.064171558941965,-2.4244356430022678,0
1.114,1521,3566968,1957,0,1,-12.516221235456872,-2.2400008225629917,0
1.116,1522,3568968,1977,0,1,-7.726820594883748,-1.9914126130465406,0
1.118,1523,3570968,1994,0,1,-1.58407799291425,-1.7445850705090153,0
1.12,1524,3572968,2008,0,1,3.605122862836512,-1.583219550949937,0
1.122,1525,3574968,2021,0,1,5.880815942927504,-1.583864827831381,0
1.124,1526,3576968,2023,0,1,4.306981660495316,-1.7938396999963135,0
1.126,1527,3578968,2003,1,1,-0.563887829212069,-2.217527905221213,0
1.128,1528,3580968,1971,0,1,-6.7515430381420956,-2.818653468688204,0
1.13,1529,3582968,1947,0,1,-11.648315198673632,-3.54188613712269,0
1.132,1530,3584968,1951,0,1,-13.21738126796545,-4.344025218382793,0
1.134,1531,3586968,1961,0,1,-10.855588197742115,-5.216384511829007,0
1.136,1532,3588968,1977,0,1,-5.5143354594223934,-6.187313628380436,0
1.138,1533,3590968,1997,0,1,0.7477045084847891,-7.307417554430788,0
1.14,1534,3592968,2019,0,1,5.501828056141252,-8.624550498025135,0
1.142,1535,3594968,2020,0,1,6.811270101837569,-10.15521191189304,0
1.144,1536,3596968,2023,0,1,3.9727408297316282,-11.861123483061993,0
1.146,1537,3598968,2003,1,1,-2.101628937310882,-13.63887964211208,0
1.148,1538,3600968,1960,0,1,-9.06311548487057,-15.32788105399295,0
1.15,1539,3602968,1939,0,1,-14.065670394590908,-16.739173008921057,0
1.152,1540,3604968,1947,0,1,-15.125431348643481,-17.694975566783047,0
1.154,1541,3606968,1963,0,1,-11.990609101416844,-18.056751551936955,0
1.156,1542,3608968,1983,0,1,-6.0621611678767096,-17.729784117685856,0
1.158,1543,3610968,1999,0,1,0.2983337746513417,-16.650479450521274,0
1.16,1544,3612968,2012,0,1,4.592009657726267,-14.767991684505581,0
1.162,1545,3614968,2020,0,1,4.914085716603348,-12.028141212939882,0
1.164,1546,3616968,2023,0,1,0.5681496518742479,-8.363833743739997,0
1.166,1547,3618968,1991,1,1,-7.528355234536175,-3.6964316543587956,0
1.168,1548,3620968,1971,0,1,-16.948713429644283,2.0454077013984993,0
1.17,1549,3622968,1943,0,1,-24.48464946921448,8.88925156916684,0
1.172,1550,3624968,1932,0,1,-27.184088813658555,16.77538666805091,0
1.174,1551,3626968,1947,0,1,-23.258848638392195,25.52065401161523,0
1.176,1552,3628968,1977,0,1,-12.431767461578058,34.80334502307301,0
1.178,1553,3630968,2003,0,1,4.466564699881209,44.17619190749988,0
1.18,1554,3632968,2023,0,1,26.273947611977157,53.100765330151404,0
1.182,1555,3634968,2037,0,1,52.01996639204818,60.98965526571687,0
1.184,1556,3636968,2035,0,1,80.80151328786606,67.24639536685838,0
1.186,1557,3638968,2012,1,1,110.7842530021416,71.29632978489032,0
1.188,1558,3640968,2131,0,1,137.76771361892057,72.61445347354594,0
1.19,1559,3642968,2229,0,1,155.220994061546,70.78339672884812,0
1.192,1560,3644968,2233,0,1,156.97955556220427,65.59704312006137,1
1.194,1561,3646968,2188,0,1,140.53564007668854,57.158144136582436,0
1.196,1562,3648968,2095,0,1,108.11368333259605,45.90472324398423,0
1.198,1563,3650968,2023,0,1,65.1865498509655,32.55441980177781,0
1.2,1564,3652968,1971,0,1,17.947553619575828,18.00020155942204,0
1.202,1565,3654968,1949,0,1,-28.580051234657624,3.1997130378825602,0
1.204,1566,3656968,1945,0,1,-70.88910676935738,-10.913095313101792,0
1.206,1567,3658968,1925,1,1,-105.9280892899409,-23.487437057773427,0
1.208,1568,3660968,1823,0,1,-129.87838870281254,-33.8036116364366,0
1.21,1569,3662968,1766,0,1,-138.5824043261547,-41.33874547365798,0
1.212,1570,3664968,1785,0,1,-129.8745812620781,-45.84838137435146,0
1.214,1571,3666968,1855,0,1,-105.67015147217026,-47.41507248944458,0
1.216,1572,3668968,1931,0,1,-71.87494636370911,-46.42290095771931,0
1.218,1573,3670968,1993,0,1,-36.401014425937966,-43.46717684857457,0
1.22,1574,3672968,2043,0,1,-6.702852474799352,-39.23730932873485,0
1.222,1575,3674968,2059,0,1,12.181320843120508,-34.405779732890366,0
1.224,1576,3676968,2057,0,1,18.72426235902555,-29.543228117847644,0
1.226,1577,3678968,2019,1,1,15.019244180311775,-25.07111480087537,0
1.228,1578,3680968,1961,0,1,5.810961699749583,-21.25715571498076,0
1.23,1579,3682968,1928,0,1,-3.4689894105559844,-18.249304350741895,0
1.232,1580,3684968,1948,0,1,-8.8658587049358,-16.12564235190624,0
1.234,1581,3686968,1944,0,1,-9.081567666749493,-14.928621769335335,0
1.236,1582,3688968,1967,0,1,-5.437378450151127,-14.672762227324837,0
1.238,1583,3690968,1998,0,1,-1.1993105330786404,-15.334809429512964,0
1.24,1584,3692968,2023,0,1,-0.4730694099295958,-16.83207327284408,0
1.242,1585,3694968,2015,0,1,-6.791655003392927,-18.995987344019046,0
1.244,1586,3696968,2031,0,1,-21.84725119557166,-21.555571961549223,0
1.246,1587,3698968,2015,1,1,-44.45992013704551,-24.13748996359861,0
1.248,1588,3700968,1928,0,1,-69.89552565280796,-26.286840636614663,0
1.25,1589,3702968,1816,0,1,-90.64784105534582,-27.52791595183311,0
1.252,1590,3704968,1788,0,1,-99.40401226412546,-27.470876797173823,0
1.254,1591,3706968,1831,0,1,-92.55151537608683,-25.91993259123313,0
1.256,1592,3708968,1895,0,1,-71.68484392243295,-22.92151998010358,0
1.258,1593,3710968,1963,0,1,-42.51269209750363,-18.735007117326937,0
1.26,1594,3712968,2025,0,1,-12.429003886508204,-13.753307011345065,0
1.262,1595,3714968,2054,0,1,11.947762254617583,-8.40828413814625,0
1.264,1596,3716968,2069,0,1,26.544481179782426,-3.0872753536604556,0
1.266,1597,3718968,2057,1,1,30.626077613890054,1.9226228159701648,0
1.268,1598,3720968,2006,0,1,26.56351355616171,6.454519842700389,0
1.27,1599,3722968,1974,0,1,18.557963877378583,10.44388792700861,0
1.272,1600,3724968,1963,0,1,10.753324149997612,13.884751022502659,0
1.274,1601,3726968,1984,0,1,5.803685593011502,16.787260996508245,0
1.276,1602,3728968,1975,0,1,4.567557693222322,19.156427625405875,0
1.278,1603,3730968,1988,0,1,6.505408981251827,20.98818585850788,0
1.28,1604,3732968,2005,0,1,10.14736087815616,22.272149549832402,0
1.282,1605,3734968,2020,0,1,13.63282769556169,23.000624492125414,0
1.284,1606,3736968,2025,0,1,15.41876014237964,23.18379699933219,0
1.286,1607,3738968,2019,1,1,14.880990331810512,22.86303500954031,0
1.288,1608,3740968,2003,0,1,12.500748881386198,22.113997667701227,0
1.29,1609,3742968,1988,0,1,9.549784153256649,21.03693074314927,0
1.292,1610,3744968,1974,0,1,7.412882257586474,19.737604433618607,0
1.294,1611,3746968,1991,0,1,6.901681327766889,18.307755182691274,0
1.296,1612,3748968,1983,0,1,7.947705396230725,16.81471166148062,0
1.298,1613,3750968,1999,0,1,9.7009725242794,15.301914519570104,0
1.3,1614,3752968,2011,0,1,10.83704546259034,13.796302439927073,0
1.302,1615,3754968,2013,0,1,10.04047459553194,12.320559586887713,0
1.304,1616,3756968,2025,0,1,6.598231886668756,10.906836268534596,0
1.306,1617,3758968,2007,1,1,0.9202318898991284,9.606315642233863,0
1.308,1618,3760968,1975,0,1,-5.302070979620722,8.487879878291041,0
1.31,1619,3762968,1939,0,1,-9.711048201119313,7.6184937529254135,0
1.312,1620,3764968,1955,0,1,-10.541797849180165,7.030536836070511,0
1.314,1621,3766968,1979,0,1,-7.53790485447465,6.699076752796401,0
1.316,1622,3768968,1981,0,1,-1.834416859883988,6.5453050629877785,0
1.318,1623,3770968,1999,0,1,4.709783192675037,6.457048308163812,0
1.32,1624,3772968,2010,0,1,10.07207914894214,6.311610421213931,0
1.322,1625,3774968,2027,0,1,12.55376162333612,5.99859775189518,0
1.324,1626,3776968,2027,0,1,11.359341511517297,5.442642296864958,0
1.326,1627,3778968,2004,1,1,7.048882594551622,4.618965730470261,0
1.328,1628,3780968,1977,0,1,1.426820891899029,3.551895792068745,0
1.33,1629,3782968,1959,0,1,-3.2712633236277915,2.2944245532593746,0
1.332,1630,3784968,1960,0,1,-5.445653752996469,0.900351768770939,0
1.334,1631,3786968,1974,0,1,-4.804115611128379,-0.5948143649111017,0
1.336,1632,3788968,1980,0,1,-2.359456855768004,-2.176250150244261,0
1.338,1633,3790968,1996,0,1,0.026398597895539222,-3.8393468777203257,0
1.34,1634,3792968,2012,0,1,0.2772698461267069,-5.573300925573019,0
1.342,1635,3794968,2009,0,1,-3.1584208129937394,-7.343081391049768,0
1.344,1636,3796968,2030,0,1,-10.534484796564913,-9.074292475783537,0
1.346,1637,3798968,1967,1,1,-20.228476880207957,-10.647723924223401,0
1.348,1638,3800968,1928,0,1,-28.991862159786027,-11.916259129024272,0
1.35,1639,3802968,1909,0,1,-33.39927845624042,-12.748720306715175,0
1.352,1640,3804968,1919,0,1,-31.609398200455832,-13.078120244176828,0
1.354,1641,3806968,1963,0,1,-24.18177414891322,-12.924362905018377,0
1.356,1642,3808968,1973,0,1,-13.630975648654237,-12.382296184586812,0
1.358,1643,3810968,1998,0,1,-3.3627925886896533,-11.588677741056795,0
1.36,1644,3812968,2031,0,1,3.3439632297727355,-10.685076232398854,0
1.362,1645,3814968,2027,0,1,4.29861827835189,-9.782382399755942,0
1.364,1646,3816968,2041,0,1,-0.6856789818325266,-8.931932543824757,0
1.366,1647,3818968,1966,1,1,-9.37804479478893,-8.115654824988471,0
1.368,1648,3820968,1926,0,1,-17.885547444643006,-7.26859390294099,0
1.37,1649,3822968,1930,0,1,-22.534630235259485,-6.329404191411609,0
1.372,1650,3824968,1933,0,1,-21.561653943547544,-5.286876693815169,0
1.374,1651,3826968,1975,0,1,-15.532541532842027,-4.195518185119889,0
1.376,1652,3828968,1983,0,1,-6.682803535009974,-3.16106772465782,0
1.378,1653,3830968,2005,0,1,2.1104174475574533,-2.3107104666245757,0
1.38,1654,3832968,2029,0,1,8.237059707379856,-1.761029943945256,0
1.382,1655,3834968,2019,0,1,10.094191442614228,-1.5892392577418555,0
1.384,1656,3836968,2036,0,1,7.647397858975921,-1.812090371597196,0
1.386,1657,3838968,1972,1,1,2.5647303913950656,-2.3799873635185196,0
1.388,1658,3840968,1957,0,1,-2.4584711807789064,-3.1939778421586444,0
1.39,1659,3842968,1955,0,1,-5.082038420474359,-4.141154907807533,0
1.392,1660,3844968,1960,0,1,-4.461140341607892,-5.125792149166107,0
1.394,1661,3846968,1994,0,1,-1.4492385439174509,-6.079030971562422,0
1.396,1662,3848968,1993,0,1,1.983098943786546,-6.9488242247926895,0
1.398,1663,3850968,2008,0,1,3.596887326708999,-7.681568843560408,0
1.4,1664,3852968,2015,0,1,1.5907055499097038,-8.206466574187365,0
1.402,1665,3854968,2021,0,1,-4.790848797547588,-8.425099907596815,0
1.404,1666,3856968,2028,1,1,-14.548774023178531,-8.204993588654741,0
1.406,1667,3858968,1893,1,1,-24.670782299104165,-7.3888501916774665,0
1.408,1668,3860968,1933,0,1,-31.38099682433605,-5.8383091210725135,0
1.41,1669,3862968,1932,0,1,-32.18090848691737,-3.4931806473709734,0
1.412,1670,3864968,1940,0,1,-26.709315922830477,-0.4014043604465689,0
1.414,1671,3866968,1989,0,1,-16.295764035365668,3.28686829807466,0
1.416,1672,3868968,1989,0,1,-3.1099787647436283,7.344107399484374,0
1.418,1673,3870968,2006,0,1,10.656669341607174,11.498522528561855,0
1.42,1674,3872968,2027,0,1,23.227111528497147,15.465069174721524,0
1.422,1675,3874968,2026,0,1,33.375075727070026,18.972262670927677,0
1.424,1676,3876968,2039,1,1,40.48776394263835,21.78605538254278,0
1.426,1677,3878968,2022,1,1,44.46001227280013,23.726596507054488,0
1.428,1678,3880968,2039,0,1,45.41168449442552,24.676366230580463,0
1.43,1679,3882968,2040,0,1,43.49454123764517,24.584414501006428,0
1.432,1680,3884968,2025,0,1,38.9702280699225,23.470245491018595,0
1.434,1681,3886968,2025,0,1,32.31174573737027,21.42267716924951,0
1.436,1682,3888968,2005,0,1,24.113534392287697,18.5899440680226,0
1.438,1683,3890968,1997,0,1,14.898163288273043,15.163680757724018,0
1.44,1684,3892968,1999,0,1,4.953637628940999,11.36062084627674,0
1.442,1685,3894968,1999,0,1,-5.566879754035354,7.4077190618801545,0
1.444,1686,3896968,2010,1,1,-16.117514736503757,3.534766497067782,0
1.446,1687,3898968,1945,1,1,-25.1793462643707,-0.0322321006328945,0
1.448,1688,3900968,1927,0,1,-30.498762349617706,-3.0928064392109,0
1.45,1689,3902968,1926,0,1,-30.315653623601037,-5.509675140199279,0
1.452,1690,3904968,1944,0,1,-24.503086447134116,-7.237654859992064,0
1.454,1691,3906968,1975,0,1,-14.749882645754376,-8.324194240462422,0
1.456,1692,3908968,1996,0,1,-3.9175307464059896,-8.884148011484486,0
1.458,1693,3910968,2009,0,1,4.9024442943957975,-9.062066988687281,0
1.46,1694,3912968,2029,0,1,9.213141044016137,-8.995021697485498,0
1.462,1695,3914968,2026,0,1,7.7546359887974425,-8.78240176419813,0
1.464,1696,3916968,2025,1,1,1.0167658397566957,-8.465839582636924,0
1.466,1697,3918968,1971,1,1,-8.618029139641468,-8.02609915214349,0
1.468,1698,3920968,1933,0,1,-17.57587310405629,-7.405483685875416,0
1.47,1699,3922968,1933,0,1,-22.605228227328396,-6.551358539654682,0
1.472,1700,3924968,1939,0,1,-22.139770420118904,-5.456223586110032,0
1.474,1701,3926968,1965,0,1,-16.680405660676644,-4.172852088226131,0
1.476,1702,3928968,1977,0,1,-8.335378408903651,-2.804603211424618,0
1.478,1703,3930968,2013,0,1,0.0006339503486665343,-1.4809802996584651,0
1.48,1704,3932968,2020,0,1,5.596933901235584,-0.3261983340670699,0
1.482,1705,3934968,2025,0,1,6.789237459352552,0.5712605012712262,0
1.484,1706,3936968,2019,1,1,3.5576986285156647,1.178417140420191,0
1.486,1707,3938968,1975,1,1,-2.4444419746019217,1.5198671957475054,0
1.488,1708,3940968,1962,0,1,-8.567649142153545,1.6590639715572053,0
1.49,1709,3942968,1945,0,1,-12.33865401759309,1.6655185913678736,0
1.492,1710,3944968,1956,0,1,-12.473268018007666,1.5849196132581371,0
1.494,1711,3946968,1967,0,1,-9.274983566382092,1.4249823684204939,0
1.496,1712,3948968,1991,0,1,-4.395258631734687,1.1595603345036076,0
1.498,1713,3950968,2007,0,1,-0.12718016085239015,0.7472213872720967,0
1.5,1714,3952968,2009,0,1,1.4660034944060816,0.15583048282138745,0
1.502,1715,3954968,2018,0,1,-0.7327433085651804,-0.6166973393710443,0
1.504,1716,3956968,2007,1,1,-6.435339334009589,-1.5306975570809702,0
1.506,1717,3958968,1973,1,1,-13.817859589427085,-2.505239702728649,0
1.508,1718,3960968,1937,0,1,-20.050921684333613,-3.4368504435708584,0
1.51,1719,3962968,1931,0,1,-22.541734854771192,-4.234613637429465,0
1.512,1720,3964968,1943,0,1,-20.18345290652135,-4.853471131114896,0
1.514,1721,3966968,1965,0,1,-13.834081558449435,-5.306510963254436,0
1.516,1722,3968968,1988,0,1,-5.928007312998547,-5.65269739419481,0
1.518,1723,3970968,2010,0,1,0.3996323524144847,-5.968925052475658,0
1.52,1724,3972968,2032,0,1,2.364616159818411,-6.316395598381993,0
1.522,1725,3974968,2021,0,1,-1.4295954585133617,-6.710032917165841,0
1.524,1726,3976968,2019,1,1,-10.249044582466617,-7.1007797958087,0
1.526,1727,3978968,1951,1,1,-21.14550864981748,-7.3800832512153285,0
1.528,1728,3980968,1909,0,1,-29.94118020692505,-7.413356995480121,0
1.53,1729,3982968,1911,0,1,-33.139117921191286,-7.094908472660629,0
1.532,1730,3984968,1930,0,1,-29.554720504599587,-6.394123582113805,0
1.534,1731,3986968,1971,0,1,-20.599823540333137,-5.3664573367892245,0
1.536,1732,3988968,1989,0,1,-9.378807568966266,-4.130451900500295,0
1.538,1733,3990968,2013,0,1,0.5882876105876509,-2.8289502388371224,0
1.54,1734,3992968,2028,0,1,6.438663927813769,-1.5907187696529137,0
1.542,1735,3994968,2025,0,1,6.730690216510935,-0.5001389865942505,0
1.544,1736,3996968,2023,1,1,1.9043853683268344,0.42056217448164723,0
1.546,1737,3998968,1967,1,1,-5.750604629358397,1.2105171480987078,0
1.548,1738,4000968,1944,0,1,-12.934493669972618,1.945368731601837,0
1.55,1739,4002968,1941,0,1,-16.80084365349949,2.6955844690631503,0
1.552,1740,4004968,1955,0,1,-16.10178275256086,3.4916165314232144,0
1.554,1741,4006968,1976,0,1,-11.35721041069028,4.313338822865438,0
1.556,1742,4008968,1977,0,1,-4.327674309793883,5.100352073869745,0
1.558,1743,4010968,2009,0,1,2.6360127085631104,5.771208777130871,0
1.56,1744,4012968,2020,0,1,7.234825093038869,6.246256575867319,0
1.562,1745,4014968,2025,0,1,7.959988362717002,6.4724584178538915,0
1.564,1746,4016968,2015,1,1,4.700342158985699,6.442110876620756,0
1.566,1747,4018968,1993,1,1,-1.1206043015104195,6.1964233671943205,0
1.568,1748,4020968,1951,0,1,-7.049364545809889,5.810396561295548,0
1.57,1749,4022968,1955,0,1,-10.692165462683851,5.362329206889086,0
1.572,1750,4024968,1961,0,1,-10.782508812023291,4.903670498683087,0
1.574,1751,4026968,1964,0,1,-7.5713845037397185,4.445783941116657,0
1.576,1752,4028968,1995,0,1,-2.5932827666660363,3.964572993345665,0
1.578,1753,4030968,2009,0,1,1.9472916289991113,3.4177789968321046,0
1.58,1754,4032968,2009,0,1,4.015816791610288,2.7695293095010904,0
1.582,1755,4034968,2025,0,1,2.4732227715906445,2.011989613378196,0
1.584,1756,4036968,2003,1,1,-2.4794521641359686,1.1776552898653108,0
1.586,1757,4038968,1981,1,1,-9.209931951101268,0.33905289948874806,0
1.588,1758,4040968,1947,0,1,-15.185005286718853,-0.40907826531233304,0
1.59,1759,4042968,1945,0,1,-18.049323259880204,-0.9811412752307538,0
1.592,1760,4044968,1947,0,1,-16.65541281671918,-1.3299288828178994,0
1.594,1761,4046968,1963,0,1,-11.528508867054393,-1.4599858003271233,0
1.596,1762,4048968,1995,0,1,-4.664373661447547,-1.4213212949699376,0
1.598,1763,4050968,2009,0,1,1.2255696125503652,-1.286571088464552,0
1.6,1764,4052968,2027,0,1,3.7489402720580216,-1.120113124062525,0
1.602,1765,4054968,2015,0,1,1.7358859417148658,-0.9514488062325235,0
1.604,1766,4056968,2009,1,1,-4.291485667704125,-0.7625180059470995,0
1.606,1767,4058968,1976,1,1,-12.188405421642742,-0.49279330243798225,0
1.608,1768,4060968,1931,0,1,-18.888247747704675,-0.0630788013698631,0
1.61,1769,4062968,1935,0,1,-21.70835513347384,0.5859703389826889,0
1.612,1770,4064968,1950,0,1,-19.581533417318333,1.458811921376161,0
1.614,1771,4066968,1974,0,1,-13.351844039091826,2.4946121960229104,0
1.616,1772,4068968,1992,0,1,-5.1585123584554715,3.582753406363586,0
1.618,1773,4070968,2008,0,1,2.466418244770624,4.590723164135369,0
1.62,1774,4072968,2021,0,1,7.38922126660759,5.3932336378470325,0
1.622,1775,4074968,2023,0,1,8.479451166554766,5.897068222964544,0
1.624,1776,4076968,2011,1,1,5.977155034454657,6.0572057323521005,0
1.626,1777,4078968,1988,1,1,1.4458109361265237,5.878886170577417,0
1.628,1778,4080968,1961,0,1,-2.8340645217440352,5.40304694398683,0
1.63,1779,4082968,1957,0,1,-4.888097618097182,4.680272612217852,0
1.632,1780,4084968,1965,0,1,-3.983448712103721,3.7466256196684697,0
1.634,1781,4086968,1990,0,1,-0.9310690428242969,2.6150618036609137,0
1.636,1782,4088968,1993,0,1,2.333995175601726,1.2852826887671691,0
1.638,1783,4090968,2018,0,1,3.5218306347384276,-0.2365333228265225,0
1.64,1784,4092968,2023,0,1,0.8248117765359018,-1.916631630291139,0
1.642,1785,4094968,2009,0,1,-6.286732349177317,-3.6768732295818616,0
1.644,1786,4096968,1992,1,1,-16.617960322138657,-5.390949630691028,0
1.646,1787,4098968,1957,1,1,-27.421011925712428,-6.8995657168954825,0
1.648,1788,4100968,1913,0,1,-35.226554199485804,-8.04338808576821,0
1.65,1789,4102968,1911,0,1,-37.22348546998439,-8.707122253931082,0
1.652,1790,4104968,1932,0,1,-32.551093269760344,-8.856755637655462,0
1.654,1791,4106968,1959,0,1,-22.668502346098848,-8.549209293100484,0
1.656,1792,4108968,1991,0,1,-10.717934412471434,-7.911472578966119,0
1.658,1793,4110968,2019,0,1,-0.38986900563366156,-7.101572277255146,0
1.66,1794,4112968,2030,0,1,5.281529355081727,-6.264860224986796,0
1.662,1795,4114968,2031,0,1,4.887576504524209,-5.497564715560972,0
1.664,1796,4116968,2013,1,1,-0.8601593637784264,-4.827208107366739,0
1.666,1797,4118968,1967,0,1,-9.302276955821647,-4.2159969511721425,0
1.668,1798,4120968,1935,0,1,-16.845600805631957,-3.589537381879685,0
1.67,1799,4122968,1939,0,1,-20.508018662054717,-2.880612568135346,0
1.672,1800,4124968,1944,0,1,-19.09204666309877,-2.064681891245898,0
1.674,1801,4126968,1977,0,1,-13.39860989374517,-1.1708172037621911,0
1.676,1802,4128968,1983,0,1,-5.660914609541078,-0.2696102619590923,0
1.678,1803,4130968,2020,0,1,1.3437857006547738,0.5518252320163088,0
1.68,1804,4132968,2019,0,1,5.224776753576464,1.2188391868266883,0
1.682,1805,4134968,2023,0,1,4.770625891860645,1.694368918388438,0
1.684,1806,4136968,2015,1,1,0.38833233204469053,1.9922459091728646,0
1.686,1807,4138968,1971,0,1,-5.965061924557903,2.1737784881000404,0
1.688,1808,4140968,1949,0,1,-11.533998202925499,2.32483121863787,0
1.69,1809,4142968,1952,0,1,-14.022386204285333,2.51996211410466,0
1.692,1810,4144968,1961,0,1,-12.54543398976266,2.793872928439487,0
1.694,1811,4146968,1977,0,1,-7.762707819121491,3.133844753383999,0
1.696,1812,4148968,1992,0,1,-1.4416647811929408,3.4897124552261785,0
1.698,1813,4150968,2012,0,1,4.189838890007529,3.7933483780547355,0
1.7,1814,4152968,2024,0,1,7.175166620457487,3.9823942027977117,0
1.702,1815,4154968,2023,0,1,6.544186947868118,4.022757839295344,0
1.704,1816,4156968,2003,1,1,2.746825959057542,3.9215815946691643,0
1.706,1817,4158968,1979,0,1,-2.500201813651522,3.7231593311594557,0
1.708,1818,4160968,1961,0,1,-6.9719655019289775,3.48812346253503,0
1.71,1819,4162968,1961,0,1,-8.913363703983185,3.266132260512479,0
1.712,1820,4164968,1977,0,1,-7.681188891640342,3.076411531569878,0
1.714,1821,4166968,1972,0,1,-3.7995426432769968,2.903806356176846,0
1.716,1822,4168968,1992,0,1,1.3016416894991707,2.706074062446736,0
1.718,1823,4170968,2012,0,1,5.645186186014358,2.427286550768981,0
1.72,1824,4172968,2022,0,1,7.305737643853666,2.0178822487246286,0
1.722,1825,4174968,2031,0,1,5.212351759048994,1.4575294322576215,0
1.724,1826,4176968,2007,1,1,-0.20720516374311693,0.7706988073416704,0
1.726,1827,4178968,1971,0,1,-6.984051848984699,0.024591156482927312,0
1.728,1828,4180968,1945,0,1,-12.444169209797112,-0.6952982459548038,0
1.73,1829,4182968,1948,0,1,-14.545870900996944,-1.3214928353734163,0
1.732,1830,4184968,1975,0,1,-12.786272611849427,-1.8302738664298785,0
1.734,1831,4186968,1975,0,1,-8.145378408742353,-2.2432430039676734,0
1.736,1832,4188968,1995,0,1,-2.4689252994673385,-2.6117715054596937,0
1.738,1833,4190968,2013,0,1,2.167200467071842,-2.9965200900394655,0
1.74,1834,4192968,2013,0,1,4.076015088225249,-3.44566521093736,0
1.742,1835,4194968,2028,0,1,2.5634236040657115,-3.9751256814716265,0
1.744,1836,4196968,1999,1,1,-1.662343306654428,-4.557023846874058,0
1.746,1837,4198968,1966,0,1,-6.593877065951585,-5.1237744365828775,0
1.748,1838,4200968,1949,0,1,-9.82038929256156,-5.592240005892924,0
1.75,1839,4202968,1950,0,1,-9.818538312136592,-5.897087652186398,0
1.752,1840,4204968,1990,0,1,-6.711142315016589,-6.011478218605786,0
1.754,1841,4206968,1996,0,1,-1.9720191051246108,-5.942523018857482,0
1.756,1842,4208968,1997,0,1,2.469989525390515,-5.71056976566978,0
1.758,1843,4210968,2015,0,1,4.904931829861942,-5.330703954477146,0
1.76,1844,4212968,2013,0,1,4.200749685988207,-4.801263515566425,0
1.762,1845,4214968,2031,0,1,0.21859215333423343,-4.094711625961066,0
1.764,1846,4216968,1979,1,1,-5.8038226275081515,-3.1542537653551967,0
1.766,1847,4218968,1959,0,1,-11.500571406905177,-1.907994179162233,0
1.768,1848,4220968,1951,0,1,-14.446771523132355,-0.30220862383786296,0
1.77,1849,4222968,1959,0,1,-13.26837456279042,1.665425982837216,0
1.772,1850,4224968,1980,0,1,-8.034733506781038,3.931448290229582,0
1.774,1851,4226968,1997,0,1,0.06343934236745064,6.373323426251829,0
1.776,1852,4228968,2009,0,1,9.36684404226958,8.82970257971263,0
1.778,1853,4230968,2019,0,1,18.32371730559947,11.124382499424323,0
1.78,1854,4232968,2024,0,1,25.79284960488428,13.087417520600264,0
1.782,1855,4234968,2029,0,1,31.120640574223096,14.571689880597955,0
1.784,1856,4236968,2024,1,1,34.076050446469544,15.464556818247681,0
1.786,1857,4238968,2029,0,1,34.69351455956625,15.694289015021003,0
1.788,1858,4240968,2028,0,1,33.13243874265942,15.232855499780891,0
1.79,1859,4242968,2025,0,1,29.66010264678739,14.097057734387633,0
1.792,1860,4244968,2023,0,1,24.71951981333401,12.347454423012335,0
1.794,1861,4246968,1995,0,1,18.917834036174398,10.08230972717059,0
1.796,1862,4248968,1998,0,1,12.771118494916731,7.424163408437692,0
1.798,1863,4250968,2002,0,1,6.390864259066107,4.50378311973871,0
1.8,1864,4252968,2002,0,1,-0.44748885024138385,1.4511565140532294,0
1.802,1865,4254968,2015,0,1,-7.7905193287737315,-1.604790976287764,0
1.804,1866,4256968,1981,1,1,-14.905091683660832,-4.53484179255441,0
1.806,1867,4258968,1950,0,1,-20.180104928067536,-7.217915617258811,0
1.808,1868,4260968,1941,0,1,-21.90476567640657,-9.565288157109313,0
1.81,1869,4262968,1957,0,1,-19.35311433273955,-11.546893474381735,0
1.812,1870,4264968,1977,0,1,-13.23158431016041,-13.198679089413917,0
1.814,1871,4266968,1989,0,1,-5.319759995386375,-14.606763639080716,0
1.816,1872,4268968,2005,0,1,2.1877142823220357,-15.879741869337687,0
1.818,1873,4270968,2017,0,1,7.260971574038633,-17.119667201539947,0
1.82,1874,4272968,2020,0,1,8.51472038534791,-18.395960081547692,0
1.822,1875,4274968,2030,0,1,5.633875364004485,-19.724885686244953,0
1.824,1876,4276968,1995,1,1,-0.3393778165949506,-21.05873527202137,0
1.826,1877,4278968,1976,0,1,-7.173920011268526,-22.291644710511314,0
1.828,1878,4280968,1948,0,1,-12.273925391359183,-23.284503681460432,0
1.83,1879,4282968,1947,0,1,-13.816301568517236,-23.89885277662881,0
1.832,1880,4284968,1977,0,1,-11.5397924284139,-24.022797103455638,0
1.834,1881,4286968,1983,0,1,-6.702844132388585,-23.576627269052153,0
1.836,1882,4288968,1998,0,1,-1.4100446983763346,-22.50159644980787,0
1.838,1883,4290968,2011,0,1,2.100075548294397,-20.745317056086286,0
1.84,1884,4292968,2015,0,1,2.028385543523628,-18.250380144195603,0
1.842,1885,4294968,2030,1,1,-2.4170109068958414,-14.946837330144298,0
1.844,1886,4296968,2009,1,1,-10.448199566818483,-10.750797709173423,0
1.846,1887,4298968,1952,0,1,-19.53365523795634,-5.5779925655542435,0
1.848,1888,4300968,1935,0,1,-26.248736185229,0.6176696797658643,0
1.85,1889,4302968,1939,0,1,-27.787607214683337,7.7920778021131945,0
1.852,1890,4304968,1976,0,1,-22.87587666649497,15.776095846231797,0
1.854,1891,4306968,1973,0,1,-11.549153930157239,24.27338414525344,0
1.856,1892,4308968,1999,0,1,5.488398046392115,32.87931985008197,0
1.858,1893,4310968,2024,0,1,27.2291256324163,41.107507281990465,0
1.86,1894,4312968,2031,0,1,52.46787239705337,48.422949066977104,0
1.862,1895,4314968,2055,0,1,79.66925307882653,54.28018846515509,0
1.864,1896,4316968,2029,1,1,106.35299251550593,58.1589660006024,0
1.866,1897,4318968,2151,0,1,128.29888816310594,59.59987338817582,0
1.868,1898,4320968,2214,0,1,140.02755616003844,58.263514930670006,0
1.87,1899,4322968,2195,0,1,137.23967291918524,54.018916129749954,0
1.872,1900,4324968,2151,0,1,119.1956435122312,47.01237869949655,0
1.874,1901,4326968,2074,0,1,88.95916445228357,37.669011208337366,0
1.876,1902,4328968,2015,0,1,51.79682105555247,26.631439386787832,0
1.878,1903,4330968,1971,0,1,13.075607816559245,14.667112012112966,0
1.88,1904,4332968,1957,0,1,-23.220247338344112,2.575138735014292,0
1.882,1905,4334968,1967,0,1,-54.68557786538628,-8.884839600391782,0
1.884,1906,4336968,1938,1,1,-79.48427918566212,-19.03589953530189,0
1.886,1907,4338968,1876,0,1,-95.26140110944705,-27.316341273958315,0
1.888,1908,4340968,1833,0,1,-99.42504089608761,-33.32592425167498,0
1.89,1909,4342968,1848,0,1,-90.83736983383471,-36.8823010323669,0
1.892,1910,4344968,1915,0,1,-71.27078710912399,-38.051271563957215,0
1.894,1911,4346968,1957,0,1,-45.212413700845275,-37.121649234590514,0
1.896,1912,4348968,2007,0,1,-18.332294338793915,-34.53434359567977,0
1.898,1913,4350968,2042,0,1,4.221697487108177,-30.796367874916655,0
1.9,1914,4352968,2045,0,1,19.07321494907049,-26.40202942952439,0
1.902,1915,4354968,2044,0,1,25.18739905105506,-21.77479915451866,0
1.904,1916,4356968,2023,1,1,23.69051943383043,-17.237455213631943,0
1.906,1917,4358968,2009,0,1,17.179873969330053,-13.00811202653956,0
1.908,1918,4360968,1981,0,1,8.83459551586743,-9.214700588883712,0
1.91,1919,4362968,1967,0,1,1.4846511572341252,-5.920852504159471,0
1.912,1920,4364968,1971,0,1,-3.191755629475455,-3.154697939988937,0
1.914,1921,4366968,1983,0,1,-5.011331415290487,-0.9292781538093022,0
1.916,1922,4368968,1994,0,1,-4.993031641128397,0.7520290692857001,0
1.918,1923,4370968,1999,0,1,-4.689111783302119,1.9008618486814797,0
1.92,1924,4372968,2015,0,1,-5.485379481568035,2.5522143255153145,0
1.922,1925,4374968,2013,0,1,-7.952483492329677,2.7722211778305184,0
1.924,1926,4376968,1975,1,1,-11.437255392889098,2.659906151942697,0
1.926,1927,4378968,1961,0,1,-14.380389997680318,2.332771289413322,0
1.928,1928,4380968,1965,0,1,-15.27802176501475,1.8990269990382957,0
1.93,1929,4382968,1963,0,1,-13.47926554800709,1.4347605694928687,0
1.932,1930,4384968,1983,0,1,-9.397577960041657,0.9766293456561321,0
1.934,1931,4386968,1995,0,1,-4.2758688830450176,0.5282669802592652,0
1.936,1932,4388968,1999,0,1,0.2893261036760717,0.0755893417654141,0
1.938,1933,4390968,2011,0,1,2.8124947141372356,-0.39604690590838,0
1.94,1934,4392968,2013,0,1,2.2674759032239327,-0.8875543071820648,0
1.942,1935,4394968,2019,0,1,-1.5658916817775301,-1.374918359279636,0
1.944,1936,4396968,1998,1,1,-7.783179861564774,-1.8033159069299556,0
1.946,1937,4398968,1967,0,1,-14.389360059239046,-2.093288609807531,0
1.948,1938,4400968,1946,0,1,-18.98971534230552,-2.1635102515519176,0
1.95,1939,4402968,1949,0,1,-19.884128189481178,-1.9620393509364131,0
1.952,1940,4404968,1965,0,1,-16.842655704912556,-1.4881524740687082,0
1.954,1941,4406968,1983,0,1,-11.121305060243042,-0.7934448865874124,0
1.956,1942,4408968,2007,0,1,-4.855617761006616,0.03547349851601034,0
1.958,1943,4410968,2013,0,1,-0.20427851989162793,0.903416035880376,0
1.96,1944,4412968,2020,0,1,1.415033055297025,1.7321111342852733,0
1.962,1945,4414968,2015,0,1,-0.2075132847393002,2.47730492273675,0
1.964,1946,4416968,1983,1,1,-4.017257778517534,3.1329952270711194,0
1.966,1947,4418968,1972,0,1,-8.193461950070072,3.7196045493894774,0
1.968,1948,4420968,1972,0,1,-11.007057524350351,4.26156521644095,0
1.97,1949,4422968,1967,0,1,-11.465297718442248,4.768378002539469,0
1.972,1950,4424968,1975,0,1,-9.535988210047886,5.225947667775665,0
1.974,1951,4426968,1992,0,1,-6.088482647152239,5.597118917011138,0
1.976,1952,4428968,1999,0,1,-2.5603633017737115,5.831331098585079,0
1.978,1953,4430968,2011,0,1,-0.4269589263617508,5.880556359007847,0
1.98,1954,4432968,2011,0,1,-0.6867629441364249,5.715129242499585,0
1.982,1955,4434968,2013,1,1,-3.469934294847775,5.335073366099676,0
1.984,1956,4436968,1991,1,1,-7.849411651026066,4.773807978690932,0
1.986,1957,4438968,1967,0,1,-12.064161717797845,4.089927964994764,0
1.988,1958,4440968,1955,0,1,-14.266936816888554,3.3462973870040464,0
1.99,1959,4442968,1959,0,1,-13.459296988460801,2.585780876241148,0
1.992,1960,4444968,1983,0,1,-10.0109256353525,1.8182513902255673,0
1.994,1961,4446968,1991,0,1,-5.46841350230439,1.0261421984674386,0
1.996,1962,4448968,2007,0,1,-1.9089872819100995,0.18290177298927102,0
1.998,1963,4450968,2018,0,1,-1.2310695019186069,-0.7257904313645,0
2.0,1964,4452968,2011,0,1,-4.527985378986475,-1.68418899013415,0
2.002,1965,4454968,2023,1,1,-11.584100726118866,-2.6357517572607003,0
2.004,1966,4456968,1971,1,1,-20.61288749417966,-3.4835040114650204,0
2.006,1967,4458968,1939,0,1,-28.636793354150043,-4.108883529774327,0
2.008,1968,4460968,1925,0,1,-32.728157563200774,-4.410434071102451,0
2.01,1969,4462968,1941,0,1,-31.375542650694143,-4.343187279491051,0
2.012,1970,4464968,1961,0,1,-25.025495819343362,-3.9354929493611426,0
2.014,1971,4466968,1977,0,1,-15.726545357605318,-3.2794696379415553,0
2.016,1972,4468968,2007,0,1,-6.3715813344776535,-2.505509129804063,0
2.018,1973,4470968,2025,0,1,0.17544783814197107,-1.749720102945766,0
2.02,1974,4472968,2034,0,1,2.0094348720124726,-1.120111910103432,0
2.022,1975,4474968,2018,1,1,-1.0777776597548456,-0.6709783415848996,0
2.024,1976,4476968,1991,1,1,-7.444117100187153,-0.3962512698401768,0
2.026,1977,4478968,1959,0,1,-14.21927218440297,-0.24594038460893164,0
2.028,1978,4480968,1944,0,1,-18.498160984772397,-0.15912380457641806,0
2.03,1979,4482968,1946,0,1,-18.5665962543548,-0.0984314123676624,0
2.032,1980,4484968,1973,0,1,-14.563188561173376,-0.06977803026082663,0
2.034,1981,4486968,1996,0,1,-8.26161892845457,-0.1184464780271699,0
2.036,1982,4488968,2005,0,1,-2.2040981098090144,-0.30622624863477244,0
2.038,1983,4490968,2023,0,1,1.2380555249871694,-0.6836374633207443,0
2.04,1984,4492968,2023,0,1,0.5779886571118116,-1.2670658734261315,0
2.042,1985,4494968,2025,1,1,-4.253637285472915,-2.0236436390874046,0
2.044,1986,4496968,1983,1,1,-11.671601346850828,-2.8684630505837956,0
2.046,1987,4498968,1949,0,1,-18.899720483297443,-3.6821274703243074,0
2.048,1988,4500968,1941,0,1,-23.205845637238554,-4.347502226023376,0
2.05,1989,4502968,1951,0,1,-23.16375911133299,-4.786709615453027,0
2.052,1990,4504968,1974,0,1,-19.107106303546487,-4.977714035910254,0
2.054,1991,4506968,1983,0,1,-12.729323616766681,-4.947327300797914,0
2.056,1992,4508968,2007,0,1,-6.331044342959389,-4.750954412448092,0
2.058,1993,4510968,2013,0,1,-2.077428416782677,-4.448837909282832,0
2.06,1994,4512968,2026,0,1,-1.3369536552173873,-4.083836351493636,0
2.062,1995,4514968,2011,1,1,-4.170180125767044,-3.665503675655327,0
2.064,1996,4516968,1989,1,1,-9.19753703245821,-3.167118613387,0
2.066,1997,4518968,1959,0,1,-14.094602525344705,-2.540621023088473,0
2.068,1998,4520968,1954,0,1,-16.618705388214238,-1.7453853489499016,0
2.07,1999,4522968,1964,0,1,-15.595184023904826,-0.775957885085035,0
2.072,2000,4524968,1983,0,1,-11.271677392614691,0.32638743571584117,0
2.074,2001,4526968,1999,0,1,-4.957776787239638,1.4817830124191818,0
2.076,2002,4528968,2001,0,1,1.6308822185785026,2.5910308609207604,0
2.078,2003,4530968,2021,0,1,6.895638340215413,3.555551350623916,0
2.08,2004,4532968,2024,0,1,9.722987587696844,4.294847739402054,0
2.082,2005,4534968,2019,1,1,9.806786166541162,4.761029305936446,0
2.084,2006,4536968,2005,1,1,7.74478805044823,4.945046001125006,0
2.086,2007,4538968,1992,0,1,4.728111689450185,4.870528321522048,0
2.088,2008,4540968,1989,0,1,1.9792130780600594,4.579159317126644,0
2.09,2009,4542968,1992,0,1,0.2840723275481416,4.116191499303676,0
2.092,2010,4544968,1991,0,1,-0.1652713108863706,3.522270670649755,0
2.094,2011,4546968,1995,0,1,0.3007030907503907,2.831251264259679,0
2.096,2012,4548968,2007,0,1,0.9984217459113616,2.0718032281099448,0
2.098,2013,4550968,2003,0,1,1.164421257189642,1.2724646434328326,0
2.1,2014,4552968,2009,0,1,0.2580319720965578,0.4676737053418336,0
2.102,2015,4554968,1998,1,1,-1.8589935201225467,-0.29934435795798886,0
2.104,2016,4556968,2011,1,1,-4.8549818385826775,-0.977421608947509,0
2.106,2017,4558968,1979,0,1,-7.9135725056567505,-1.5110378886705293,0
2.108,2018,4560968,1978,0,1,-9.942020120971286,-1.8494316078835606,0
2.11,2019,4562968,1980,0,1,-10.050846059792224,-1.9608714013883266,0
2.112,2020,4564968,1975,0,1,-7.948212860033693,-1.843404714678209,0
2.114,2021,4566968,1991,0,1,-4.063624259612277,-1.5270874767418725,0
2.116,2022,4568968,2003,0,1,0.5485455543964592,-1.0682737058548326,0
2.118,2023,4570968,2019,0,1,4.582389001221851,-0.5356086314580546,0
2.12,2024,4572968,2009,0,1,6.994039988306981,0.007859749165860519,0
2.122,2025,4574968,2020,1,1,7.319543374158022,0.5177480196652242,0
2.124,2026,4576968,2011,1,1,5.744371355257387,0.9738407955996295,0
2.126,2027,4578968,1997,0,1,3.0381691448807784,1.379471175915437,0
2.128,2028,4580968,1993,0,1,0.29212389563091623,1.75382929859961,0
2.13,2029,4582968,1982,0,1,-1.5139524585944448,2.118952686489118,0
2.132,2030,4584968,1992,0,1,-1.8834386832561858,2.4876799612477107,0
2.134,2031,4586968,1997,0,1,-0.9187657435108294,2.857982068600635,0
2.136,2032,4588968,1995,0,1,0.8282686402498962,3.2147113588932954,0
2.138,2033,4590968,2007,0,1,2.574499962044947,3.534825251779426,0
2.14,2034,4592968,2013,0,1,3.519477419686644,3.793871531874762,0
2.142,2035,4594968,2013,1,1,3.1466343982925187,3.9743378023425935,0
2.144,2036,4596968,2013,1,1,1.5190136366519154,4.072839965079369,0
2.146,2037,4598968,1991,0,1,-0.6440824487738102,4.101184325458997,0
2.148,2038,4600968,1979,0,1,-2.2814397972619824,4.078048396617801,0
2.15,2039,4602968,1989,0,1,-2.596804137740771,4.01433208135402,0
2.152,2040,4604968,1991,0,1,-1.47466259426999,3.9032815088241595,0
2.154,2041,4606968,1997,0,1,0.5491742566633082,3.721574436994298,0
2.156,2042,4608968,2003,0,1,2.5232639024126122,3.4368456273656856,0
2.158,2043,4610968,2018,0,1,3.3703726093011674,3.017803474794859,0
2.16,2044,4612968,2013,0,1,2.2849051959763855,2.446462411578659,0
2.162,2045,4614968,2018,1,1,-0.8572332012059105,1.7289248461982578,0
2.164,2046,4616968,1993,1,1,-5.296713000372682,0.8991282664038014,0
2.166,2047,4618968,1977,0,1,-9.594988313415053,0.011475699366847003,0
2.168,2048,4620968,1963,0,1,-12.285247572107618,-0.8772648883820784,0
2.17,2049,4622968,1975,0,1,-12.62428877077511,-1.7277924121947832,0
2.172,2050,4624968,1979,0,1,-10.948901512089673,-2.5278568217507247,0
2.174,2051,4626968,1992,0,1,-8.521504376599637,-3.2882067070565846,0
2.176,2052,4628968,2009,0,1,-7.063497009589186,-4.029333947449013,0
2.178,2053,4630968,2012,0,1,-8.111749435527452,-4.763654536334263,0
2.18,2054,4632968,2020,0,1,-12.315652211845709,-5.478109594832003,0
2.182,2055,4634968,1991,1,1,-18.921996134394035,-6.124401708083942,0
2.184,2056,4636968,1955,1,1,-25.843302424449195,-6.625580517670476,0
2.186,2057,4638968,1943,0,1,-30.53261528498617,-6.902114108974089,0
2.188,2058,4640968,1938,0,1,-31.1953304124507,-6.904967375788296,0
2.19,2059,4642968,1959,0,1,-27.567223570779433,-6.636622413346364,0
2.192,2060,4644968,1965,0,1,-20.983862005500765,-6.1518840781949224,0
2.194,2061,4646968,2004,0,1,-13.9157727196548,-5.5415258733847,0
2.196,2062,4648968,2009,0,1,-9.157392314960902,-4.904622615799937,0
2.198,2063,4650968,2023,0,1,-8.881133614708679,-4.317639109163945,0
2.2,2064,4652968,2029,0,1,-13.810260102414073,-3.8096476050924784,0
2.202,2065,4654968,1995,1,1,-22.66010804378432,-3.3500036201281658,0
2.204,2066,4656968,1941,1,1,-32.256841108479705,-2.8575771145041173,0
2.206,2067,4658968,1915,0,1,-38.77831542466894,-2.238145582857517,0
2.208,2068,4660968,1919,0,1,-39.575038783769834,-1.434297289943827,0
2.21,2069,4662968,1947,0,1,-34.35127942630498,-0.4579376792029679,0
2.212,2070,4664968,1971,0,1,-25.12023145051574,0.610243806779223,0
2.214,2071,4666968,2003,0,1,-15.283285248736911,1.6479488063185719,0
2.216,2072,4668968,2023,0,1,-8.408378698901485,2.5306286605573933,0
2.218,2073,4670968,2024,0,1,-7.085753331297227,3.170219103330634,0
2.22,2074,4672968,2027,0,1,-12.118169987724732,3.542565874385942,0
2.222,2075,4674968,2003,1,1,-22.138102221927433,3.697631304738601,0
2.224,2076,4676968,1949,1,1,-33.78498303872435,3.7486161159724576,0
2.226,2077,4678968,1907,0,1,-42.799508987553395,3.835200408428628,0
2.228,2078,4680968,1907,0,1,-45.856940682498134,4.069724421350809,0
2.23,2079,4682968,1928,0,1,-42.06263587165267,4.4941110207568284,0
2.232,2080,4684968,1963,0,1,-33.21700290444855,5.070249730226993,0
2.234,2081,4686968,1995,0,1,-22.9335703792926,5.703619754145462,0
2.236,2082,4688968,2019,0,1,-15.226118811007181,6.285250546924216,0
2.238,2083,4690968,2026,0,1,-13.131006516659438,6.735222491244164,0
2.24,2084,4692968,2038,0,1,-17.652369891534157,7.035720810149534,0
2.242,2085,4694968,1982,1,1,-27.190815169028657,7.245676158389556,0
2.244,2086,4696968,1934,1,1,-37.92902297438313,7.486119137851977,0
2.246,2087,4698968,1909,0,1,-45.42611335622338,7.893822319134632,0
2.248,2088,4700968,1907,0,1,-46.588695490069185,8.565491717663686,0
2.25,2089,4702968,1931,0,1,-40.8899900251885,9.521556205574722,0
2.252,2090,4704968,1975,0,1,-30.401595724319836,10.702928840661292,0
2.254,2091,4706968,1997,0,1,-18.806622119430216,11.998242861429102,0
2.256,2092,4708968,2015,0,1,-10.017627211412895,13.286076538248874,0
2.258,2093,4710968,2035,0,1,-7.021111301924966,14.474187747866736,0
2.26,2094,4712968,2029,0,1,-11.031516087143796,15.527975313502125,0
2.262,2095,4714968,2027,1,1,-20.86267214631946,16.48530209049222,0
2.264,2096,4716968,1933,1,1,-32.884442137253245,17.448660924408497,0
2.266,2097,4718968,1908,0,1,-42.25647934005038,18.543160023217098,0
2.268,2098,4720968,1900,0,1,-45.17794018053897,19.85132763115314,0
2.27,2099,4722968,1931,0,1,-40.61917803503716,21.36254141544166,0
2.272,2100,4724968,1983,0,1,-30.449571529197694,22.964488107312103,0
2.274,2101,4726968,2006,0,1,-18.175320993195292,24.47424324611216,0
2.276,2102,4728968,2013,0,1,-7.285617805825929,25.686583289166578,0
2.278,2103,4730968,2031,0,1,-0.16511397983549791,26.415276513390758,0
2.28,2104,4732968,2029,0,1,2.348367553094633,26.52021588392037,0
2.282,2105,4734968,2011,1,1,1.0782142162664563,25.922654777185265,0
2.284,2106,4736968,1977,0,1,-1.8558620772852716,24.60401976886495,0
2.286,2107,4738968,1961,0,1,-4.079627014047629,22.585460283377103,0
2.288,2108,4740968,1975,0,1,-4.228638776306791,19.900100115695892,0
2.29,2109,4742968,1992,0,1,-2.5929854623881834,16.57798598581035,0
2.292,2110,4744968,2008,0,1,-0.8084647256082196,12.652274852636472,0
2.294,2111,4746968,2014,0,1,-1.0204585971848914,8.177814941726187,0
2.296,2112,4748968,2011,0,1,-5.087686475474113,3.248491782909176,0
2.298,2113,4750968,2022,0,1,-14.008597326037902,-1.9934761337879312,0
2.3,2114,4752968,2013,0,1,-27.375797098663654,-7.3551889207115435,0
2.302,2115,4754968,1976,1,1,-42.862947511374415,-12.59903885509295,0
2.304,2116,4756968,1908,0,1,-56.39397920906625,-17.468762979887472,0
2.306,2117,4758968,1877,0,1,-63.571112865850644,-21.742897542800463,0
2.308,2118,4760968,1882,0,1,-61.79653643099951,-25.297946841048955,0
2.31,2119,4762968,1931,0,1,-51.67014130128202,-28.146500120991732,0
2.312,2120,4764968,1973,0,1,-36.768231725608885,-30.428683097283013,0
2.314,2121,4766968,2009,0,1,-22.147588320778986,-32.36469004203852,0
2.316,2122,4768968,2030,0,1,-12.55794852212799,-34.19337391795164,0
2.318,2123,4770968,2036,0,1,-11.040147754117562,-36.1182365099598,0
2.32,2124,4772968,2035,0,1,-18.043523447945798,-38.271021039545026,0
2.322,2125,4774968,1993,1,1,-31.054867763205216,-40.69761190933353,0
2.324,2126,4776968,1911,0,1,-45.12058988488053,-43.37442681833296,0
2.326,2127,4778968,1884,0,1,-54.703324533011084,-46.25993435422667,0
2.328,2128,4780968,1891,0,1,-56.14062291920032,-49.35912234534707,0
2.33,2129,4782968,1919,0,1,-49.13823087870537,-52.76151160137725,0
2.332,2130,4784968,1983,0,1,-36.57530369036751,-56.632828264585854,0
2.334,2131,4786968,1997,0,1,-23.031750142289138,-61.16799752202917,0
2.336,2132,4788968,2023,0,1,-13.003954228821767,-66.5291054682993,0
2.338,2133,4790968,2031,0,1,-9.620006120780785,-72.79172692545195,0
2.34,2134,4792968,2041,0,1,-13.851510135072374,-79.90707122774617,0
2.342,2135,4794968,2008,1,1,-23.98243208186147,-87.68070268311092,0
2.344,2136,4796968,1927,0,1,-35.800498292566004,-95.77903752795781,0
2.346,2137,4798968,1897,0,1,-44.19433337925477,-103.77486785441482,0
2.348,2138,4800968,1901,0,1,-45.584202037573114,-111.2146940192167,0
2.35,2139,4802968,1940,0,1,-39.51408854779383,-117.66770741098165,0
2.352,2140,4804968,1976,0,1,-28.5205545039812,-122.73403298961232,0
2.354,2141,4806968,2005,0,1,-16.80307675986745,-126.02224274238728,0
2.356,2142,4808968,2023,0,1,-8.66168493840243,-127.1193744583536,0
2.358,2143,4810968,2037,0,1,-7.2527508578119395,-125.57101282563436,0
2.36,2144,4812968,2029,0,1,-13.716233989084309,-120.87916604324694,0
2.362,2145,4814968,2005,1,1,-26.68736780071343,-112.52275982449068,0
2.364,2146,4816968,1947,0,1,-42.460459525266515,-100.00699478840146,0
2.366,2147,4818968,1931,0,1,-55.989751730912644,-82.94184343564986,0
2.368,2148,4820968,1932,0,1,-62.198422527334934,-61.13195115097244,0
2.37,2149,4822968,1945,0,1,-56.69731715460094,-34.650622216231596,0
2.372,2150,4824968,1989,0,1,-35.66005033670446,-3.88308925384257,0
2.374,2151,4826968,2007,0,1,4.70739104539868,30.460876836773636,0
2.376,2152,4828968,2019,0,1,68.25578425117047,67.35549364724827,0
2.378,2153,4830968,2023,0,1,157.4943063409568,105.47428205511807,0
2.38,2154,4832968,2025,0,1,270.1415686273733,143.20635160886116,0
2.382,2155,4834968,2118,1,1,394.14429614591995,178.68605452424612,0
2.384,2156,4836968,2666,0,1,504.7611060574395,209.90069169404345,0
2.386,2157,4838968,3049,0,1,570.4527182347936,234.9871306357569,1
2.388,2158,4840968,3007,0,1,568.2056798609976,252.68929829335394,0
2.39,2159,4842968,2719,0,1,497.2117248668957,262.71001717855194,0
2.392,2160,4844968,2367,0,1,380.38242159107864,265.7160809473369,0
2.394,2161,4846968,2063,0,1,254.72619762995618,263.0171283767255,0
2.396,2162,4848968,1880,0,1,158.01765849279008,256.10205167678924,0
2.398,2163,4850968,1809,0,1,117.58125815618058,246.20756135491672,0
2.4,2164,4852968,1807,0,1,143.27907632449455,234.02135287951023,0
2.402,2165,4854968,1928,1,1,224.17876751770135,219.554033218451,0
2.404,2166,4856968,2470,0,1,329.6086168531479,202.2096075731881,0
2.406,2167,4858968,2861,0,1,418.4040625957743,181.11106343323416,0
2.408,2168,4860968,2877,0,1,455.67758700453953,155.6180885442312,0
2.41,2169,4862968,2674,0,1,427.03641082314294,125.77288112238821,0
2.412,2170,4864968,2376,0,1,341.27253813597844,92.4411394851941,0
2.414,2171,4866968,2100,0,1,222.6815142556374,57.145884493622745,0
2.416,2172,4868968,1910,0,1,99.66574854682281,21.736508338964228,0
2.418,2173,4870968,1831,0,1,-4.740030741612571,-11.959079512368248,0
2.42,2174,4872968,1823,0,1,-77.60158169247825,-42.3989621081474,0
2.422,2175,4874968,1847,1,1,-116.04433473498906,-68.47024542249056,0
2.424,2176,4876968,1877,0,1,-124.35109108461897,-89.52593622998744,0
2.426,2177,4878968,1896,0,1,-110.53228070847663,-105.3551587488288,0
2.428,2178,4880968,1949,0,1,-83.7838912068402,-116.12005201352741,0
2.43,2179,4882968,1993,0,1,-52.86591317284827,-122.27236606447048,0
2.432,2180,4884968,2026,0,1,-24.862353951004767,-124.45433101923271,0
2.434,2181,4886968,2029,0,1,-4.30436395243521,-123.3985467969425,0
2.436,2182,4888968,2037,0,1,7.030142512118676,-119.84587090278353,0
2.438,2183,4890968,2021,0,1,9.707462851497525,-114.48887618782437,0
2.44,2184,4892968,2009,0,1,5.936005413454801,-107.93901298152092,0
2.442,2185,4894968,1998,1,1,-1.204067354184886,-100.71330311281974,0
2.444,2186,4896968,1966,0,1,-8.491836513392073,-93.23563114266409,0
2.446,2187,4898968,1959,0,1,-13.331990281794404,-85.84943450553274,0
2.448,2188,4900968,1967,0,1,-14.495180032913119,-78.83533425005515,0
2.45,2189,4902968,1979,0,1,-12.418914534109707,-72.42108593746545,0
2.452,2190,4904968,1999,0,1,-8.881473048671872,-66.77763653427613,0
2.454,2191,4906968,2005,0,1,-6.306015911704023,-62.00631576318508,0
2.456,2192,4908968,2013,0,1,-7.0286327094519585,-58.12577445524946,0
2.458,2193,4910968,2021,0,1,-12.671347392544725,-55.06452133829588,0
2.46,2194,4912968,2021,0,1,-23.51151146127586,-52.6598936142987,0
2.462,2195,4914968,1983,1,1,-37.901138573047305,-50.66635344491474,0
2.464,2196,4916968,1935,0,1,-52.28657894939603,-48.78362691168489,0
2.466,2197,4918968,1893,0,1,-62.289214668234976,-46.710477936129095,0
2.468,2198,4920968,1882,0,1,-64.5017341127801,-44.21124880944447,0
2.47,2199,4922968,1917,0,1,-58.00257794131876,-41.16838763469306,0
2.472,2200,4924968,1946,0,1,-44.71673880892396,-37.59832921516979,0
2.474,2201,4926968,1993,0,1,-28.57668885956963,-33.62831626732897,0
2.476,2202,4928968,2020,0,1,-14.089228945828996,-29.44912631309895,0
2.478,2203,4930968,2037,0,1,-4.899517587480222,-25.26166362649675,0
2.48,2204,4932968,2053,0,1,-2.6759079599063043,-21.231124233469984,0
2.482,2205,4934968,2005,1,1,-6.516958200347471,-17.458737610322494,0
2.484,2206,4936968,1960,0,1,-13.327769125833566,-13.982777472330874,0
2.486,2207,4938968,1947,0,1,-19.351481883896103,-10.811332633834887,0
2.488,2208,4940968,1948,0,1,-21.934043344068296,-7.964156448056173,0
2.49,2209,4942968,1974,0,1,-20.382706624403227,-5.495541208424939,0
2.492,2210,4944968,1981,0,1,-15.745582236565618,-3.4907387452236804,0
2.494,2211,4946968,2003,0,1,-10.056593576339683,-2.045525541291397,0
2.496,2212,4948968,2015,0,1,-5.532976150673878,-1.240134000317255,0
2.498,2213,4950968,2022,0,1,-3.858202972035972,-1.1134261705843471,0
2.5,2214,4952968,2021,0,1,-5.605655202719767,-1.6420072907548686,0
2.502,2215,4954968,1993,1,1,-9.993810252410967,-2.7308413031557777,0
2.504,2216,4956968,1972,0,1,-15.213368739455642,-4.221197946510884,0
2.506,2217,4958968,1967,0,1,-19.26420891561311,-5.913736609380905,0
2.508,2218,4960968,1951,0,1,-20.832602918122927,-7.594950765556632,0
2.51,2219,4962968,1973,0,1,-19.84019095238433,-9.0568447798175,0
2.512,2220,4964968,1977,0,1,-17.528903276520936,-10.105292808411487,0
2.514,2221,4966968,1992,0,1,-16.083103122322665,-10.557069444146421,0
2.516,2222,4968968,2015,0,1,-17.946304474434832,-10.230541327245856,0
2.518,2223,4970968,2012,0,1,-24.91304234357346,-8.934830861560872,0
2.52,2224,4972968,2018,0,1,-37.118985543637805,-6.46332324561768,0
2.522,2225,4974968,1966,1,1,-52.32559361175551,-2.6015388520199707,0
2.524,2226,4976968,1903,0,1,-66.13911270181339,2.8385924502645175,0
2.526,2227,4978968,1873,0,1,-73.56397367440906,9.954531687758696,0
2.528,2228,4980968,1887,0,1,-71.13937008997733,18.681397743447512,0
2.53,2229,4982968,1932,0,1,-58.181491428411206,28.75017174087659,0
2.532,2230,4984968,1976,0,1,-36.46036074791445,39.694975350609155,0
2.534,2231,4986968,2014,0,1,-8.876164570424692,50.89977805629191,0
2.536,2232,4988968,2036,0,1,21.840747643793534,61.66171614373399,0
2.538,2233,4990968,2043,0,1,53.67509424622125,71.25177751076383,0
2.54,2234,4992968,2059,0,1,84.92680668140389,78.96406884753432,0
2.542,2235,4994968,2055,1,1,113.13189848909968,84.15462957958019,0
2.544,2236,4996968,2170,0,1,134.1263888458439,86.28199373760484,0
2.546,2237,4998968,2229,0,1,142.70659992437106,84.97285909456662,0
2.548,2238,5000968,2207,0,1,135.1993397599611,80.11145545595056,0
2.55,2239,5002968,2142,0,1,111.76425794278225,71.90120365811006,0
2.552,2240,5004968,2063,0,1,76.38811660429764,60.8527520432215,0
2.554,2241,5006968,1997,0,1,34.954997616697824,47.7063239213198,0
2.556,2242,5008968,1964,0,1,-7.019737288823173,33.32628738231902,0
2.558,2243,5010968,1945,0,1,-45.726896687903306,18.602884952591772,0
2.56,2244,5012968,1957,1,1,-78.96079351411299,4.380996704695811,0
2.562,2245,5014968,1929,1,1,-104.87275559954998,-8.582578543529912,0
2.564,2246,5016968,1846,0,1,-120.82187767966003,-19.652932709156495,0
2.566,2247,5018968,1805,0,1,-123.89345233026027,-28.368836901353752,0
2.568,2248,5020968,1831,0,1,-113.00509865004743,-34.50631431823602,0
2.57,2249,5022968,1899,0,1,-90.53583814893116,-38.10907347459396,0
2.572,2250,5024968,1947,0,1,-61.99228582615338,-39.455545342530264,0
2.574,2251,5026968,2011,0,1,-34.248371833924274,-38.977608759788104,0
2.576,2252,5028968,2044,0,1,-13.51425857070861,-37.163331389870656,0
2.578,2253,5030968,2053,0,1,-3.6525944712313496,-34.467740222436255,0
2.58,2254,5032968,2053,1,1,-5.155374633816301,-31.248525983404402,0
2.582,2255,5034968,1989,1,1,-15.005332985700232,-27.737951452176183,0
2.584,2256,5036968,1932,0,1,-27.716177298314612,-24.0580465958497,0
2.586,2257,5038968,1901,0,1,-37.538307640475246,-20.27434111298598,0
2.588,2258,5040968,1920,0,1,-40.77176225105019,-16.458797044521145,0
2.59,2259,5042968,1945,0,1,-36.83664484104625,-12.726266182682187,0
2.592,2260,5044968,1971,0,1,-27.843714920854772,-9.233224669705297,0
2.594,2261,5046968,2005,0,1,-17.38821640283261,-6.151543522842006,0
2.596,2262,5048968,2025,0,1,-9.206043321971263,-3.6326488356826916,0
2.598,2263,5050968,2029,0,1,-5.977156502806054,-1.7728826110448455,0
2.6,2264,5052968,2035,1,1,-8.491796149091869,-0.589810291020382,0
2.602,2265,5054968,1995,1,1,-15.324701006659794,-0.016270162713762915,0
2.604,2266,5056968,1951,0,1,-23.27594053094542,0.08172622333936186,0
2.606,2267,5058968,1927,0,1,-28.75873545947922,-0.13789443817714808,0
2.608,2268,5060968,1940,0,1,-29.496900822172037,-0.543535371716688,0
2.61,2269,5062968,1961,0,1,-25.445871487425727,-1.0606148125960013,0
2.612,2270,5064968,1990,0,1,-18.53567911355928,-1.6711693475511127,0
2.614,2271,5066968,2009,0,1,-11.661243211720423,-2.3905851748732694,0
2.616,2272,5068968,2015,0,1,-7.553770391549449,-3.2368773882422084,0
2.618,2273,5070968,2022,0,1,-7.948859170594556,-4.2052057477862785,0
2.62,2274,5072968,2027,1,1,-13.061644211833304,-5.252147616492822,0
2.622,2275,5074968,1989,1,1,-21.27470480250542,-6.290652762400202,0
2.624,2276,5076968,1933,0,1,-29.465963310832755,-7.204410065977026,0
2.626,2277,5078968,1933,0,1,-34.35545008104344,-7.886520935767518,0
2.628,2278,5080968,1937,0,1,-34.082477165864766,-8.282190474166072,0
2.63,2279,5082968,1966,0,1,-28.85910829489419,-8.40776062478757,0
2.632,2280,5084968,1977,0,1,-20.587100419647616,-8.341016447727558,0
2.634,2281,5086968,2005,0,1,-12.037368997790116,-8.194907017902693,0
2.636,2282,5088968,2025,0,1,-5.960253782960503,-8.085000888768334,0
2.638,2283,5090968,2031,0,1,-4.17801914876925,-8.096191697059885,0
2.64,2284,5092968,2020,1,1,-6.848714605518726,-8.256845479236365,0
2.642,2285,5094968,1981,1,1,-12.32443331410694,-8.53170268840585,0
2.644,2286,5096968,1961,0,1,-17.862890130928477,-8.839013826712378,0
2.646,2287,5098968,1946,0,1,-20.898569901286983,-9.08371800828406,0
2.648,2288,5100968,1959,0,1,-20.166136120577004,-9.18863367201741,0
2.65,2289,5102968,1981,0,1,-16.11176195550354,-9.108667762146826,0
2.652,2290,5104968,1993,0,1,-10.517176753154736,-8.82462411548826,0
2.654,2291,5106968,2011,0,1,-5.718521492789389,-8.324786770984169,0
2.656,2292,5108968,2021,0,1,-3.8190253571270354,-7.584842116910909,0
2.658,2293,5110968,2019,0,1,-6.020135447409205,-6.55216127717191,0
2.66,2294,5112968,2022,1,1,-12.11939348430365,-5.138546792177047,0
2.662,2295,5114968,1973,1,1,-20.336647873857174,-3.226286258226411,0
2.664,2296,5116968,1947,0,1,-27.82251451284089,-0.6938436477563865,0
2.666,2297,5118968,1944,0,1,-31.852583163054533,2.541871466918911,0
2.668,2298,5120968,1950,0,1,-30.916161463302636,6.486964660843549,0
2.67,2299,5122968,1979,0,1,-25.00351304062263,11.053998007231186,0
2.672,2300,5124968,1991,0,1,-15.149076244853214,16.068972462547727,0
2.674,2301,5126968,2007,0,1,-2.708039574587314,21.29273511600515,0
2.676,2302,5128968,2019,0,1,11.167666399844736,26.446125381494596,0
2.678,2303,5130968,2021,0,1,25.680948664173158,31.23321808833777,0
2.68,2304,5132968,2013,1,1,40.12254692089061,35.3596449989808,0
2.682,2305,5134968,2035,1,1,53.22132212880552,38.54501372396254,0
2.684,2306,5136968,2094,0,1,62.74260245145519,40.540156868980176,0
2.686,2307,5138968,2109,0,1,66.17988652836914,41.163277753065465,0
2.688,2308,5140968,2091,0,1,62.19941000927995,40.34446500897858,0
2.69,2309,5142968,2059,0,1,51.47848211001215,38.14786259597451,0
2.692,2310,5144968,2025,0,1,36.317587390199385,34.75724666583878,0
2.694,2311,5146968,2007,0,1,19.586712583689422,30.437177051290824,0
2.696,2312,5148968,1991,0,1,3.7939319731113716,25.489046842014897,0
2.698,2313,5150968,1983,0,1,-9.356590095483032,20.214126601506884,0
2.7,2314,5152968,1980,1,1,-18.9756959272719,14.88685994834211,0
2.702,2315,5154968,1983,1,1,-24.734396664193,9.738306047274172,0
2.704,2316,5156968,1959,0,1,-26.56517925189338,4.947138159422757,0
2.706,2317,5158968,1962,0,1,-24.675080027583,0.6319713301683869,0
2.708,2318,5160968,1968,0,1,-19.894901604369377,-3.1553227539263276,0
2.71,2319,5162968,2002,0,1,-13.833960182533993,-6.4254188941811385,0
2.712,2320,5164968,1996,0,1,-8.487061376915388,-9.231154136616912,0
2.714,2321,5166968,2011,0,1,-5.628824562023038,-11.640411475811389,0
2.716,2322,5168968,2013,0,1,-6.39286956995023,-13.713564773357415,0
2.718,2323,5170968,2009,0,1,-10.979445218995277,-15.487510083355787,0
2.72,2324,5172968,2011,1,1,-18.38101812892024,-16.96615783113706,0
2.722,2325,5174968,1957,1,1,-26.31821351065912,-18.121627625163256,0
2.724,2326,5176968,1931,0,1,-31.857774640079562,-18.913870758660774,0
2.726,2327,5178968,1933,0,1,-32.75618930520686,-19.326018971263238,0
2.728,2328,5180968,1949,0,1,-28.617364667129593,-19.39302925082403,0
2.73,2329,5182968,1992,0,1,-21.01032184931093,-19.203399322091457,0
2.732,2330,5184968,1994,0,1,-12.633293433251458,-18.875029918523694,0
2.734,2331,5186968,2011,0,1,-6.255956963419519,-18.52202851978368,0
2.736,2332,5188968,2020,0,1,-4.0047347274414555,-18.227753338771507,0
2.738,2333,5190968,2023,0,1,-6.895043307828086,-18.026554533131318,0
2.74,2334,5192968,2027,1,1,-14.356483589775351,-17.8925259755148,0
2.742,2335,5194968,1961,1,1,-23.98104314199444,-17.74125069232054,0
2.744,2336,5196968,1931,0,1,-32.16346961952522,-17.456563850188957,0
2.746,2337,5198968,1919,0,1,-35.72186169008387,-16.940065084938997,0
2.748,2338,5200968,1943,0,1,-33.408950533935354,-16.156193659527627,0
2.75,2339,5202968,1976,0,1,-26.26329866382922,-15.147112686814946,0
2.752,2340,5204968,1990,0,1,-16.841760787908257,-14.016079641158159,0
2.754,2341,5206968,2013,0,1,-8.088491062466012,-12.895589161288967,0
2.756,2342,5208968,2023,0,1,-2.413965008785217,-11.915463969798143,0
2.758,2343,5210968,2021,0,1,-1.0706592455668753,-11.177210731334617,0
2.76,2344,5212968,2027,1,1,-3.793943301669838,-10.737849242792468,0
2.762,2345,5214968,1973,1,1,-8.814705126273381,-10.607330681043637,0
2.764,2346,5216968,1959,0,1,-13.548019171787535,-10.765146710871889,0
2.766,2347,5218968,1959,0,1,-15.849721618619727,-11.191289313231898,0
2.768,2348,5220968,1972,0,1,-14.955517641001789,-11.890235154432903,0
2.77,2349,5222968,1993,0,1,-11.514884954208844,-12.893135065230025,0
2.772,2350,5224968,1998,0,1,-6.99026375344455,-14.242352989895164,0
2.774,2351,5226968,2004,0,1,-2.977125224634982,-15.9703337074959,0
2.776,2352,5228968,2012,0,1,-0.7740616384077526,-18.081671338326156,0
2.778,2353,5230968,2018,0,1,-1.1135004684604004,-20.539323191223033,0
2.78,2354,5232968,2025,1,1,-3.8279840309087856,-23.252844968977005,0
2.782,2355,5234968,1971,1,1,-7.63675573315555,-26.073688122652428,0
2.784,2356,5236968,1965,0,1,-10.631952685151344,-28.808917078292268,0
2.786,2357,5238968,1971,0,1,-11.378577287406864,-31.24995110843129,0
2.788,2358,5240968,1975,0,1,-9.6726426563365,-33.194930715532976,0
2.79,2359,5242968,1999,0,1,-6.507977730735807,-34.45389829846832,0
2.792,2360,5244968,2005,0,1,-3.549999019007836,-34.84247381558341,0
2.794,2361,5246968,2009,0,1,-2.469389350998683,-34.17256979280074,0
2.796,2362,5248968,2012,0,1,-4.422106473362247,-32.24831364624507,0
2.798,2363,5250968,2009,0,1,-9.733340446013925,-28.870723247847266,0
2.8,2364,5252968,2011,1,1,-17.62937502165401,-23.84952795872173,0
2.802,2365,5254968,1955,1,1,-26.127316695855892,-17.02424861317598,0
2.804,2366,5256968,1945,0,1,-32.553411736223836,-8.301803301247297,0
2.806,2367,5258968,1955,0,1,-34.58723304430697,2.295344043344258,0
2.808,2368,5260968,1970,0,1,-30.875665189466563,14.594314436261307,0
2.81,2369,5262968,1999,0,1,-20.741646179996273,28.264068913124078,0
2.812,2370,5264968,2003,0,1,-3.471910673145657,42.828207164159195,0
2.814,2371,5266968,2014,0,1,22.098514303559547,57.685798839979014,0
2.816,2372,5268968,2019,0,1,57.23668690504531,72.13223512957667,0
2.818,2373,5270968,2009,0,1,102.0706435882795,85.37896361980623,0
2.82,2374,5272968,2019,1,1,153.47125172880004,96.57339730618351,0
2.822,2375,5274968,2200,1,1,203.03657909922384,104.83703987883737,0
2.824,2376,5276968,2409,0,1,238.0311609082046,109.37123169148785,0
2.826,2377,5278968,2427,0,1,246.80013445756597,109.64568005062623,1
2.828,2378,5280968,2323,0,1,225.0348170931088,105.57791314641796,0
2.83,2379,5282968,2195,0,1,177.7805240665783,97.58493840151074,0
2.832,2380,5284968,2058,0,1,116.565104193212,86.48821934145428,0
2.834,2381,5286968,1959,0,1,54.53593542269704,73.33697777431968,0
2.836,2382,5288968,1935,0,1,2.25633048036668,59.220895219175986,0
2.838,2383,5290968,1909,0,1,-34.412666851486904,45.12221835832159,0
2.84,2384,5292968,1939,1,1,-54.22435823680441,31.827844702712433,0
2.842,2385,5294968,1933,1,1,-59.163414661934254,19.894330131534723,0
2.844,2386,5296968,1947,0,1,-52.87815195147971,9.647294463887697,0
2.846,2387,5298968,1965,0,1,-39.645358020815095,1.1988000005254236,0
2.848,2388,5300968,1989,0,1,-23.822866622366476,-5.522037397400467,0
2.85,2389,5302968,2021,0,1,-9.344686503164585,-10.723678684305696,0
2.852,2390,5304968,2021,0,1,0.8898715995512401,-14.696879280116,0
2.854,2391,5306968,2019,0,1,5.44643504176801,-17.76244246922996,0
2.856,2392,5308968,2012,0,1,4.3121311719861755,-20.233520199988433,0
2.858,2393,5310968,2015,0,1,-1.4225324878539727,-22.391961091401207,0
2.86,2394,5312968,1999,1,1,-9.759148397101821,-24.471913579621326,0
2.862,2395,5314968,1964,1,1,-17.95989617490174,-26.651587315096968,0
2.864,2396,5316968,1939,0,1,-23.17417967843217,-29.06007775282056,0
2.866,2397,5318968,1933,0,1,-23.57628419540051,-31.796409808956987,0
2.868,2398,5320968,1958,0,1,-19.356929369829643,-34.94381651705569,0
2.87,2399,5322968,1983,0,1,-12.875503258830125,-38.563130397508736,0
2.872,2400,5324968,1989,0,1,-7.978118071517255,-42.66594542876343,0
2.874,2401,5326968,2015,0,1,-9.039209181746362,-47.182327894825974,0
2.876,2402,5328968,2024,0,1,-19.956943159001355,-51.933619496045004,0
2.878,2403,5330968,2021,0,1,-42.92633788257036,-56.61350198348751,0
2.88,2404,5332968,2019,1,1,-77.00332716818146,-60.78313163495538,0
2.882,2405,5334968,1961,1,1,-116.72599326353973,-63.88815558466,0
2.884,2406,5336968,1741,0,1,-152.039237013302,-65.31947897362676,0
2.886,2407,5338968,1676,0,1,-171.49545437634484,-64.54668212704343,0
2.888,2408,5340968,1704,0,1,-167.78835790747513,-61.288871297541505,0
2.89,2409,5342968,1813,0,1,-141.35192009762207,-55.6208096744525,0
2.892,2410,5344968,1914,0,1,-99.65874052359885,-47.9562058688174,0
2.894,2411,5346968,2014,0,1,-53.666972599679085,-38.93717043616104,0
2.896,2412,5348968,2073,0,1,-13.780794841813172,-29.288210206032236,0
2.898,2413,5350968,2078,0,1,13.162385465943078,-19.68225546089229,0
2.9,2414,5352968,2077,1,1,25.172022205801603,-10.649747197624137,0
2.902,2415,5354968,2021,0,1,24.681617019227122,-2.541886228207588,0
2.904,2416,5356968,1975,0,1,16.84018852158286,4.456136927726668,0
2.906,2417,5358968,1965,0,1,7.138315605736468,10.277281373509325,0
2.908,2418,5360968,1961,0,1,-0.5636533821237713,14.91885784739911,0
2.91,2419,5362968,1983,0,1,-4.779712149641856,18.407643733597418,0
2.912,2420,5364968,1989,0,1,-6.023640479009418,20.788231462404998,0
2.914,2421,5366968,1997,0,1,-5.939884440237548,22.125326768908348,0
2.916,2422,5368968,2014,0,1,-6.4509407067227595,22.509869487984147,0
2.918,2423,5370968,2027,0,1,-8.954720512488446,22.066389819778884,0
2.92,2424,5372968,2001,1,1,-13.543728480360938,20.95967474499737,0
2.922,2425,5374968,1965,0,1,-18.777075930584985,19.388564583943573,0
2.924,2426,5376968,1943,0,1,-22.481951757746035,17.5576574036332,0
2.926,2427,5378968,1959,0,1,-23.063627447641313,15.639463510676295,0
2.928,2428,5380968,1963,0,1,-20.294081788563545,13.750531388563253,0
2.93,2429,5382968,1977,0,1,-15.27437045132417,11.94989501028706,0
2.932,2430,5384968,2002,0,1,-9.9611818584133,10.252391482606935,0
2.934,2431,5386968,2009,0,1,-6.490169948728576,8.6503624841198,0
2.936,2432,5388968,2023,0,1,-6.3913139809223125,7.138594158977809,0
2.938,2433,5390968,2011,0,1,-9.924352070354256,5.734488843754444,0
2.94,2434,5392968,1979,1,1,-15.837752828353993,4.484959392717442,0
2.942,2435,5394968,1961,0,1,-21.828529569431055,3.454076944410658,0
2.944,2436,5396968,1945,0,1,-25.546536147585464,2.696388861537239,0
2.946,2437,5398968,1955,0,1,-25.546548152886693,2.2311095863113173,0
2.948,2438,5400968,1959,0,1,-21.748874938872852,2.0294001224268117,0
2.95,2439,5402968,1979,0,1,-15.383943616477655,2.017427008201913,0
2.952,2440,5404968,2003,0,1,-8.560048399120577,2.0925411265658918,0
2.954,2441,5406968,2021,0,1,-3.5162969519727794,2.149358671016489,0
2.956,2442,5408968,2014,0,1,-1.7642412797083449,2.108378072652493,0
2.958,2443,5410968,2013,0,1,-3.5481480269956034,1.9351398592981484,0
2.96,2444,5412968,1993,1,1,-7.824315320005567,1.6435785703999755,0
2.962,2445,5414968,1967,0,1,-12.690926465916007,1.2844892591566304,0
2.964,2446,5416968,1959,0,1,-16.190130537781855,0.9222869104046816,0
2.966,2447,5418968,1963,0,1,-17.164202890027866,0.6093134779524838,0
2.968,2448,5420968,1982,0,1,-15.639402753783411,0.371138770634605,0
2.97,2449,5422968,1993,0,1,-12.54150638301518,0.20860673031999122,0
2.972,2450,5424968,1976,0,1,-9.140332991641618,0.10892753560591421,0
2.974,2451,5426968,2007,0,1,-6.74629069077547,0.05425222928493853,0
2.976,2452,5428968,2019,0,1,-6.474299379661488,0.02945736757594325,0
2.978,2453,5430968,2009,0,1,-8.662928451412974,0.03524191685057598,0
2.98,2454,5432968,1981,1,1,-12.419427855561675,0.09568476912918189,0
2.982,2455,5434968,1968,0,1,-15.950379982755733,0.24692650110460046,0
2.984,2456,5436968,1960,0,1,-17.446420185675443,0.5129826133283655,0
2.986,2457,5438968,1959,0,1,-15.88806517657282,0.8839461688357868,0
2.988,2458,5440968,1983,0,1,-11.43592983330707,1.3060488794762322,0
2.99,2459,5442968,1999,0,1,-5.273851661993811,1.687753765946488,0
2.992,2460,5444968,2010,0,1,1.0040141749493392,1.9197991400194694,0
2.994,2461,5446968,2014,0,1,6.043801374173253,1.8990610275060422,0
2.996,2462,5448968,2013,0,1,9.076459282406734,1.5468649871817608,0
2.998,2463,5450968,2023,0,1,9.992539709153782,0.8201430327506771,0
3.0,2464,5452968,2002,1,1,9.313506458789433,-0.2827416575182169,0
3.002,2465,5454968,1996,0,1,7.985939649297603,-1.7233446263948684,0
3.004,2466,5456968,1991,0,1,6.90803161025703,-3.4328384542264425,0
3.006,2467,5458968,1995,0,1,6.459875603026971,-5.323460306571488,0
3.008,2468,5460968,2008,0,1,6.369553996937883,-7.293959066974878,0
3.01,2469,5462968,2003,0,1,5.9413215299101045,-9.228031224052385,0
3.012,2470,5464968,2004,0,1,4.38228793952614,-10.991364566482728,0
3.014,2471,5466968,2011,0,1,1.0202338680274008,-12.432399233896644,0
3.016,2472,5468968,2003,0,1,-4.4836407131775164,-13.385900176114188,0
3.018,2473,5470968,2007,0,1,-11.843261933579628,-13.678544971639187,0
3.02,2474,5472968,1979,1,1,-19.924616855369596,-13.13963642587529,0
3.022,2475,5474968,1957,0,1,-26.866497852742064,-11.621507700889815,0
3.024,2476,5476968,1946,0,1,-30.696261254062183,-9.030377191749809,0
3.026,2477,5478968,1956,0,1,-30.087227670256404,-5.357391937273711,0
3.028,2478,5480968,1962,0,1,-24.724506325836355,-0.6959384390113679,0
3.03,2479,5482968,1991,0,1,-15.164975010916216,4.759419995343281,0
3.032,2480,5484968,1999,0,1,-2.3869066067855664,10.729247665120978,0
3.034,2481,5486968,2023,0,1,12.711643294574099,16.87486696679281,0
3.036,2482,5488968,2015,0,1,29.574450991125524,22.825908884041496,0
3.038,2483,5490968,2023,0,1,47.76426426931684,28.203209233917963,0
3.04,2484,5492968,2005,1,1,66.1625997635367,32.63381241369045,0
3.042,2485,5494968,2101,0,1,82.08874260295512,35.76647255129157,0
3.044,2486,5496968,2141,0,1,91.60990543233417,37.310131724545656,0
3.046,2487,5498968,2143,0,1,91.44288458019717,37.09845601789313,0
3.048,2488,5500968,2108,0,1,80.85713321673667,35.14281566503209,0
3.05,2489,5502968,2054,0,1,62.024413465602,31.638027267744544,0
3.052,2490,5504968,2014,0,1,38.90048789793886,26.921497500761557,0
3.054,2491,5506968,1989,0,1,15.62721961635729,21.408860353057317,0
3.056,2492,5508968,1980,0,1,-4.598580505838477,15.53136612580213,0
3.058,2493,5510968,1981,0,1,-19.77782688234675,9.690228203494403,0
3.06,2494,5512968,1944,1,1,-28.801162289971504,4.227407314869655,0
3.062,2495,5514968,1949,0,1,-31.313127968253273,-0.5977509372311225,0
3.064,2496,5516968,1961,0,1,-27.934448801604447,-4.627479533882067,0
3.066,2497,5518968,1973,0,1,-20.301227323370497,-7.808813156007449,0
3.068,2498,5520968,1993,0,1,-10.70594070056085,-10.177888458843986,0
3.07,2499,5522968,2014,0,1,-1.5652655600600034,-11.832570210237792,0
3.072,2500,5524968,2011,0,1,5.132463140281189,-12.900445058784971,0
3.074,2501,5526968,2023,0,1,8.213522270398773,-13.510159953165589,0
3.076,2502,5528968,2014,0,1,7.4465803273689,-13.771561154580972,0
3.078,2503,5530968,2009,0,1,3.5161996318575253,-13.764902452864792,0
3.08,2504,5532968,1992,1,1,-2.145620378390332,-13.539588857115026,0
3.082,2505,5534968,1981,0,1,-7.711292447659664,-13.12239957012547,0
3.084,2506,5536968,1965,0,1,-11.451890561328085,-12.532222279620758,0
3.086,2507,5538968,1962,0,1,-12.294820871503163,-11.796862449506232,0
3.088,2508,5540968,1979,0,1,-10.249770828611453,-10.965307048813088,0
3.09,2509,5542968,1995,0,1,-6.388507006900967,-10.107493032866294,0
3.092,2510,5544968,1998,0,1,-2.3500595278048686,-9.300918675199611,0
3.094,2511,5546968,2013,0,1,0.25358007415158823,-8.613001279856928,0
3.096,2512,5548968,2017,0,1,0.31619689483138214,-8.08586039899532,0
3.098,2513,5550968,2008,0,1,-2.368716568546311,-7.725366866284762,0
3.1,2514,5552968,1995,1,1,-6.945317354260001,-7.498967315144448,0
3.102,2515,5554968,1971,0,1,-11.763249821290739,-7.346410534557038,0
3.104,2516,5556968,1958,0,1,-15.050198172531278,-7.201432080642428,0
3.106,2517,5558968,1967,0,1,-15.693241681235998,-7.015919705788727,0
3.108,2518,5560968,1977,0,1,-13.651341285988394,-6.774346039408886,0
3.11,2519,5562968,1979,0,1,-9.831535854413804,-6.493372528536039,0
3.112,2520,5564968,2005,0,1,-5.70004397492887,-6.211806673790202,0
3.114,2521,5566968,2010,0,1,-2.7670875309101786,-5.975025328284559,0
3.116,2522,5568968,2008,0,1,-1.9998566317931918,-5.817231252409441,0
3.118,2523,5570968,2011,0,1,-3.4319819362872797,-5.749181453294249,0
3.12,2524,5572968,1978,1,1,-6.157838148063601,-5.756630359131539,0
3.122,2525,5574968,1979,0,1,-8.754902646507746,-5.8104371807337785,0
3.124,2526,5576968,1971,0,1,-9.95676931315344,-5.883499547495675,0
3.126,2527,5578968,1979,0,1,-9.142693798629715,-5.963850198273894,0
3.128,2528,5580968,1976,0,1,-6.482822247128884,-6.058841021643239,0
3.13,2529,5582968,1993,0,1,-2.8923932695471457,-6.1924920380997515,0
3.132,2530,5584968,2007,0,1,0.1977572459594512,-6.396469615580746,0
3.134,2531,5586968,2018,0,1,1.3492732210561966,-6.694320852708,0
3.136,2532,5588968,2013,0,1,-0.2479427612630022,-7.084189185946565,0
3.138,2533,5590968,2012,0,1,-4.32863757558502,-7.52846803210241,0
3.14,2534,5592968,1979,1,1,-9.495043311573905,-7.955600477904375,0
3.142,2535,5594968,1961,0,1,-13.688797936744944,-8.276318872049085,0
3.144,2536,5596968,1951,0,1,-15.130898964794486,-8.41091838370318,0
3.146,2537,5598968,1975,0,1,-13.181447732937423,-8.313602705711439,0
3.148,2538,5600968,1976,0,1,-8.552126523354747,-7.980021960636105,0
3.15,2539,5602968,2006,0,1,-2.90789286752716,-7.437719402240971,0
3.152,2540,5604968,2008,0,1,1.7846707530641446,-6.727608519498501,0
3.154,2541,5606968,2015,0,1,3.8929964951508174,-5.884371412183269,0
3.156,2542,5608968,2021,0,1,2.5715119228458176,-4.922107158048106,0
3.158,2543,5610968,2022,1,1,-1.9060028667668687,-3.8265325213022523,0
3.16,2544,5612968,1968,1,1,-8.00514032594415,-2.5563540859927594,0
3.162,2545,5614968,1964,0,1,-13.456890371527775,-1.0625516554407364,0
3.164,2546,5616968,1964,0,1,-16.314290545897677,0.6796885755536151,0
3.166,2547,5618968,1963,0,1,-15.66732503381092,2.647206781766007,0
3.168,2548,5620968,1988,0,1,-11.696665002706325,4.762768123438432,0
3.17,2549,5622968,1995,0,1,-5.308456350625103,6.9034714559001955,0
3.172,2550,5624968,2005,0,1,2.402733961812345,8.918614044205015,0
3.174,2551,5626968,2012,0,1,10.556999802190159,10.649562206673323,0
3.176,2552,5628968,2012,0,1,18.602327051301042,11.946680957326803,0
3.178,2553,5630968,2013,1,1,26.17424432181777,12.68233958615418,0
3.18,2554,5632968,2019,1,1,32.78157452722668,12.760277695843431,0
3.182,2555,5634968,2039,0,1,37.566068569438734,12.125147009158201,0
3.184,2556,5636968,2057,0,1,39.47490402359434,10.777630584627804,0
3.186,2557,5638968,2041,0,1,37.82069032500803,8.79289528018577,0
3.188,2558,5640968,2029,0,1,32.67303319378006,6.329555974299547,0
3.19,2559,5642968,2011,0,1,24.677754947484686,3.620013271103863,0
3.192,2560,5644968,2011,0,1,14.586720633840372,0.947806069596564,0
3.194,2561,5646968,2007,0,1,3.0275990314836516,-1.376478570346313,0
3.196,2562,5648968,1991,0,1,-9.336455002452285,-3.0362678758658355,0
3.198,2563,5650968,1991,1,1,-21.511118685469988,-3.7305015319920694,0
3.2,2564,5652968,1959,1,1,-31.993476724352234,-3.1988636635882948,0
3.202,2565,5654968,1937,0,1,-38.93420577393791,-1.2528174009018969,0
3.204,2566,5656968,1935,0,1,-40.75544567162724,2.1883532253004194,0
3.206,2567,5658968,1947,0,1,-36.81671717993691,7.068008694370784,0
3.208,2568,5660968,1967,0,1,-27.5862040386165,13.182738328268307,0
3.21,2569,5662968,1997,0,1,-14.253132766503878,20.195688078949907,0
3.212,2570,5664968,2009,0,1,1.944348935201412,27.66668312920306,0
3.214,2571,5666968,2019,0,1,20.255115020644833,35.08896136255477,0
3.216,2572,5668968,2021,0,1,40.42822632530599,41.92266234878533,0
3.218,2573,5670968,2019,1,1,62.11248407285294,47.62150825521584,0
3.22,2574,5672968,2029,1,1,83.81773249656865,51.65490839440495,0
3.222,2575,5674968,2129,0,1,102.15735706037579,53.53809597388488,0
3.224,2576,5676968,2168,0,1,112.60113395474,52.89106631248238,0
3.226,2577,5678968,2153,0,1,111.67625005280584,49.518954808237325,0
3.228,2578,5680968,2110,0,1,98.66187524025932,43.467898075313215,0
3.23,2579,5682968,2065,0,1,75.47443216419657,35.025082964375585,0
3.232,2580,5684968,2022,0,1,45.37528431358904,24.674144291684062,0
3.234,2581,5686968,1997,0,1,11.661804659273905,13.03190928023267,0
3.236,2582,5688968,1979,0,1,-22.962742744161687,0.7858230447363788,0
3.238,2583,5690968,1973,1,1,-56.12200450653145,-11.357618517149675,0
3.24,2584,5692968,1939,1,1,-84.86595122396832,-22.71332371427929,0
3.242,2585,5694968,1844,0,1,-105.11876041317046,-32.66140930795869,0
3.244,2586,5696968,1801,0,1,-112.72113971195499,-40.713253947021386,0
3.246,2587,5698968,1821,0,1,-105.83577470255071,-46.588368193446755,0
3.248,2588,5700968,1891,0,1,-86.67415517046555,-50.2555230899688,0
3.25,2589,5702968,1956,0,1,-61.03431682959698,-51.90600699450458,0
3.252,2590,5704968,1997,0,1,-36.18226761739443,-51.87350929303931,0
3.254,2591,5706968,2036,0,1,-18.537983411813265,-50.53911091321223,0
3.256,2592,5708968,2045,0,1,-11.972491266745106,-48.24942890899958,0
3.258,2593,5710968,2038,1,1,-16.76997425588381,-45.25984448665378,0
3.26,2594,5712968,1976,1,1,-29.384487460207033,-41.71205648466307,0
3.262,2595,5714968,1895,0,1,-43.50117684789724,-37.65678708223857,0
3.264,2596,5716968,1867,0,1,-52.545660214144284,-33.11904721510221,0
3.266,2597,5718968,1887,0,1,-52.476086053230006,-28.173204808072178,0
3.268,2598,5720968,1919,0,1,-43.187287084908675,-22.984649573252298,0
3.27,2599,5722968,1992,0,1,-27.99357275183144,-17.800961629832784,0
3.272,2600,5724968,2008,0,1,-11.820314745778974,-12.904416588755579,0
3.274,2601,5726968,2037,0,1,0.8112834343472102,-8.551959580751351,0
3.276,2602,5728968,2037,0,1,7.129238027927591,-4.9273279709277205,0
3.278,2603,5730968,2029,1,1,6.651940499832469,-2.114920223531314,0
3.28,2604,5732968,2015,1,1,1.1487142590620047,-0.09534998937553496,0
3.282,2605,5734968,1946,0,1,-6.0001386487968835,1.2361820494460751,0
3.284,2606,5736968,1945,0,1,-11.208958629833116,2.0282699605971075,0
3.286,2607,5738968,1950,0,1,-12.338479823204416,2.423960247119055,0
3.288,2608,5740968,1976,0,1,-9.476831090366307,2.531246727914766,0
3.29,2609,5742968,2003,0,1,-4.498938029120936,2.4237527171607205,0
3.292,2610,5744968,2007,0,1,0.010482462805550874,2.160165828244807,0
3.294,2611,5746968,2021,0,1,1.7846661062861138,1.8062197786889804,0
3.296,2612,5748968,2027,0,1,-0.41383255370933947,1.4500848774679795,0
3.298,2613,5750968,2015,1,1,-6.281570534724402,1.2100173389744437,0
3.3,2614,5752968,1971,1,1,-13.826202508748697,1.229240015209026,0
3.302,2615,5754968,1941,0,1,-20.056392158075013,1.6493683903140575,0
3.304,2616,5756968,1939,0,1,-22.37917677399527,2.5681685188466084,0
3.306,2617,5758968,1963,0,1,-19.753462158766098,4.005041209652834,0
3.308,2618,5760968,1980,0,1,-12.842717499415365,5.893176747229221,0
3.31,2619,5762968,2003,0,1,-3.3474658378687128,8.096509289782693,0
3.312,2620,5764968,2013,0,1,6.842572524486263,10.437867659610971,0
3.314,2621,5766968,2018,0,1,16.240533540335292,12.72698307715495,0
3.316,2622,5768968,2027,0,1,23.974123153042967,14.782720970520977,0
3.318,2623,5770968,2011,1,1,29.672254109561408,16.447979293917655,0
3.32,2624,5772968,2035,1,1,33.15486728703839,17.59805530613106,0
3.322,2625,5774968,2032,0,1,34.22325037890457,18.14738861092178,0
3.324,2626,5776968,2037,0,1,32.77762107899828,18.058569379362616,0
3.326,2627,5778968,2027,0,1,29.04790018945729,17.348951246356282,0
3.328,2628,5780968,2010,0,1,23.617463248032365,16.088399817259297,0
3.33,2629,5782968,2017,0,1,17.215449445797923,14.388118767987734,0
3.332,2630,5784968,1998,0,1,10.515695654103913,12.386277567529183,0
3.334,2631,5786968,1999,0,1,4.07190900614967,10.234345931435712,0
3.336,2632,5788968,2003,0,1,-1.6563850386875987,8.084572830027454,0
3.338,2633,5790968,1978,1,1,-6.195974340769752,6.079580348835254,0
3.34,2634,5792968,1995,1,1,-9.00799530557928,4.342352204449633,0
3.342,2635,5794968,1967,0,1,-9.595186297703627,2.9655362677505916,0
3.344,2636,5796968,1973,0,1,-7.749617144700209,2.0013913222087005,0
3.346,2637,5798968,1990,0,1,-3.867821723055882,1.4546249898812107,0
3.348,2638,5800968,1995,0,1,1.0041539936731776,1.2850016254170793,0
3.35,2639,5802968,2019,0,1,5.547133430080635,1.4219485206268097,0
3.352,2640,5804968,2010,0,1,8.693778542695352,1.7840379378255813,0
3.354,2641,5806968,2015,0,1,9.995303297627382,2.2951109297616217,0
3.356,2642,5808968,2013,0,1,9.702671902019976,2.892721233308823,0
3.358,2643,5810968,1993,1,1,8.629156953945648,3.529361203106957,0
3.36,2644,5812968,1989,1,1,7.78403171319937,4.166554064500621,0
3.362,2645,5814968,1992,0,1,7.839210121096567,4.764225700146241,0
3.364,2646,5816968,2007,0,1,8.830367271848147,5.274751254571305,0
3.366,2647,5818968,2006,0,1,10.320737785583148,5.647184648401215,0
3.368,2648,5820968,1999,0,1,11.713852674129352,5.835612048749713,0
3.37,2649,5822968,2019,0,1,12.384673724944149,5.804518746461762,0
3.372,2650,5824968,2014,0,1,11.797890041840933,5.533578545017652,0
3.374,2651,5826968,2007,0,1,9.751752205515364,5.023646639444896,0
3.376,2652,5828968,2005,0,1,6.479922539109848,4.297956615658753,0
3.378,2653,5830968,2002,1,1,2.558353760482923,3.397244126914792,0
3.38,2654,5832968,1999,1,1,-1.1516118297691298,2.3737571066229997,0
3.382,2655,5834968,1971,0,1,-3.583844637756239,1.2839485997491114,0
3.384,2656,5836968,1975,0,1,-3.8464703729787715,0.17587082050924785,0
3.386,2657,5838968,1975,0,1,-1.7878780168614485,-0.924877622895405,0
3.388,2658,5840968,1992,0,1,1.7103355438860692,-2.0202957375371904,0
3.39,2659,5842968,2019,0,1,4.979738546570809,-3.1308373672444585,0
3.392,2660,5844968,2014,0,1,6.270167697628924,-4.2750245415960055,0
3.394,2661,5846968,2013,0,1,4.4736111524624205,-5.449111654003085,0
3.396,2662,5848968,2013,0,1,-0.5357071682441427,-6.617458228024059,0
3.398,2663,5850968,2003,1,1,-7.813783556418824,-7.712787026620173,0
3.4,2664,5852968,1971,0,1,-15.392566423923812,-8.644162058487698,0
3.402,2665,5854968,1939,0,1,-20.79822918538938,-9.317779707833,0
3.404,2666,5856968,1949,0,1,-22.102566349878934,-9.66860676554383,0
3.406,2667,5858968,1951,0,1,-18.83776316592836,-9.685845408932174,0
3.408,2668,5860968,1975,0,1,-12.21067286510625,-9.41815787922622,0
3.41,2669,5862968,2008,0,1,-4.6498990316392295,-8.958584621769317,0
3.412,2670,5864968,2019,0,1,1.122477676475162,-8.414857325965945,0
3.414,2671,5866968,2026,0,1,3.143659334462879,-7.87585358025658,0
3.416,2672,5868968,2019,0,1,0.9187020653002995,-7.387702834065527,0
3.418,2673,5870968,1995,1,1,-4.414079009146508,-6.946581826453604,0
3.42,2674,5872968,1970,1,1,-10.49747957721491,-6.509738590066172,0
3.422,2675,5874968,1949,0,1,-14.686384856293632,-6.021743935169025,0
3.424,2676,5876968,1951,0,1,-15.143775421448687,-5.445396877584261,0
3.426,2677,5878968,1963,0,1,-11.593191974564704,-4.783174475343619,0
3.428,2678,5880968,1989,0,1,-5.395196992715768,-4.079822063106745,0
3.43,2679,5882968,2013,0,1,1.0497982613239656,-3.405679706924951,0
3.432,2680,5884968,2021,0,1,5.2772413243697125,-2.828640631070967,0
3.434,2681,5886968,2029,0,1,5.67975938114101,-2.386965564398529,0
3.436,2682,5888968,2013,0,1,2.0669750448937654,-2.0728130657340667,0
3.438,2683,5890968,1997,1,1,-4.253175115044051,-1.8312708105217785,0
3.44,2684,5892968,1971,0,1,-10.895668811132106,-1.5756145487780717,0
3.442,2685,5894968,1941,0,1,-15.265743049247039,-1.2155792501962646,0
3.444,2686,5896968,1959,0,1,-15.628183079181436,-0.6900519919100097,0
3.446,2687,5898968,1963,0,1,-11.81861385158281,0.010903757979980888,0
3.448,2688,5900968,1989,0,1,-5.210235176911297,0.8450289679625396,0
3.45,2689,5902968,2021,0,1,1.9284622309715864,1.7354923110431244,0
3.452,2690,5904968,2013,0,1,7.376348888855217,2.5989539553718606,0
3.454,2691,5906968,2023,0,1,9.733841326214744,3.3713028735685864,0
3.456,2692,5908968,2023,0,1,8.728641913213275,4.021659954818366,0
3.458,2693,5910968,1997,1,1,5.213251973909376,4.555516389907081,0
3.46,2694,5912968,1989,0,1,0.8640673428061167,5.006723626351614,0
3.462,2695,5914968,1967,0,1,-2.484904689359583,5.418344933654812,0
3.464,2696,5916968,1977,0,1,-3.583901183831285,5.8206775456579045,0
3.466,2697,5918968,1981,0,1,-2.203374369720043,6.2168266730511785,0
3.468,2698,5920968,1994,0,1,0.8995239375669088,6.581055489506707,0
3.47,2699,5922968,2008,0,1,4.368750412548715,6.868087003724954,0
3.472,2700,5924968,2019,0,1,6.809991219660624,7.028678300058561,0
3.474,2701,5926968,2013,0,1,7.357681791651349,7.026121863531545,0
3.476,2702,5928968,2013,0,1,6.010312387578031,6.846844224557181,0
3.478,2703,5930968,1990,1,1,3.5908175029484664,6.500931375425029,0
3.48,2704,5932968,1981,0,1,1.3298516193482022,6.012504817877253,0
3.482,2705,5934968,1981,0,1,0.22989132948913849,5.40428947709127,0
3.484,2706,5936968,1992,0,1,0.614142379979898,4.6861586562081765,0
3.486,2707,5938968,1989,0,1,2.110625085370417,3.854079145923192,0
3.488,2708,5940968,1999,0,1,3.8702057385508466,2.895991135339029,0
3.49,2709,5942968,2005,0,1,4.803092003856674,1.7997964086045224,0
3.492,2710,5944968,2013,0,1,3.8870477079773176,0.5631479415944534,0
3.494,2711,5946968,2009,0,1,0.5679580979033063,-0.7962574495592318,0
3.496,2712,5948968,2011,0,1,-4.874920058889036,-2.23395344852172,0
3.498,2713,5950968,1983,1,1,-11.147650605218935,-3.6792815708086843,0
3.5,2714,5952968,1951,0,1,-16.217316209062133,-5.0481301768016795,0
3.502,2715,5954968,1951,0,1,-18.19115134793536,-6.268635012234838,0
3.504,2716,5956968,1955,0,1,-16.293041931637067,-7.306756689781408,0
3.506,2717,5958968,1980,0,1,-11.24106104704457,-8.175192350967167,0
3.508,2718,5960968,1997,0,1,-4.891453230241218,-8.92185656236358,0
3.51,2719,5962968,2005,0,1,0.5081680183402808,-9.605883218066472,0
3.512,2720,5964968,2020,0,1,3.0433333102830606,-10.272276997005147,0
3.514,2721,5966968,2008,0,1,1.641646876609661,-10.932647127367783,0
3.516,2722,5968968,2021,0,1,-3.617450845008801,-11.55479602315523,0
3.518,2723,5970968,1992,1,1,-11.335709745830636,-12.061785389088774,0
3.52,2724,5972968,1952,0,1,-18.969549524403725,-12.344210577648532,0
3.522,2725,5974968,1933,0,1,-23.7237234433504,-12.290849757103743,0
3.524,2726,5976968,1945,0,1,-23.848082050271845,-11.827400884309878,0
3.526,2727,5978968,1967,0,1,-19.36138649718645,-10.939736569195448,0
3.528,2728,5980968,1981,0,1,-11.80370207190541,-9.671053625225166,0
3.53,2729,5982968,2005,0,1,-3.4709940724671604,-8.101764170895256,0
3.532,2730,5984968,2012,0,1,3.3717492020924604,-6.324239997351059,0
