time_s,sample_index,timestamp_us,ecg_raw,leads_off,adc_ok,ecg_morph,ecg_qrs,r_peak
0.0,966,2456968,2019,0,1,-9.090746945822222,-13.597193869822693,0
0.002,967,2458968,2031,0,1,-6.262501536833714,-17.479875699797166,0
0.004,968,2460968,2054,0,1,-5.322464017163835,-21.7281110240926,0
0.006,969,2462968,2043,0,1,-7.366304934219721,-26.26140773731727,0
0.008,970,2464968,2021,1,1,-12.132859837252175,-30.93483925770057,0
0.01,971,2466968,2011,1,1,-18.128639297992006,-35.54223807410443,0
0.012,972,2468968,1983,0,1,-23.29077657128759,-39.835479622730944,0
0.014,973,2470968,1979,0,1,-25.816912498109183,-43.55057773447444,0
0.016001,974,2472969,1978,0,1,-24.923009047400768,-46.432989218962604,0
0.018,975,2474968,2005,0,1,-21.218746337612643,-48.25350479067336,0
0.02,976,2476968,2007,0,1,-16.492610816084778,-48.80963949692601,0
0.022,977,2478968,2029,0,1,-13.118700652749428,-47.91772326864144,0
0.024,978,2480968,2053,0,1,-13.3109525644123,-45.4028632247338,0
0.026,979,2482968,2035,0,1,-18.238248154126076,-41.09053725322143,0
0.028,980,2484968,2008,1,1,-27.404473720541812,-34.81073479157614,0
0.03,981,2486968,2013,1,1,-38.729593375627616,-26.42430155696689,0
0.032,982,2488968,1965,0,1,-49.01979067639382,-15.863691909560764,0
0.034,983,2490968,1948,0,1,-54.62166581097065,-3.179753857948235,0
0.036,984,2492968,1954,0,1,-52.379051983157375,11.409351854454744,0
0.038,985,2494968,1989,0,1,-40.35388808104469,27.484522970839862,0
0.04,986,2496968,2008,0,1,-17.73834284064999,44.42449629643744,0
0.042,987,2498968,2041,0,1,15.65569815277593,61.43313372576256,0
0.044,988,2500968,2059,0,1,59.583900776460524,77.58196214064002,0
0.046,989,2502968,2066,0,1,112.77724533194498,91.85876199874407,0
0.048,990,2504968,2079,1,1,171.3423610013785,103.21617019455793,0
0.05,991,2506968,2212,1,1,226.80381615196615,110.62935398791723,0
0.052,992,2508968,2455,0,1,266.3310657294978,113.20448788842263,0
0.054,993,2510968,2505,0,1,277.39325641234285,110.36675664995761,0
0.056001,994,2512969,2407,0,1,254.37648416614445,102.05804775929377,0
0.058,995,2514968,2246,0,1,201.61123524561842,88.81517910917833,0
0.06,996,2516968,2105,0,1,130.86836953117137,71.6816298617444,0
0.062,997,2518968,1994,0,1,56.14715495533159,52.015243867120724,0
0.064,998,2520968,1931,0,1,-10.91610034926208,31.27661214536239,0
0.066,999,2522968,1935,0,1,-63.397055216736675,10.853479006666682,0
0.068,1000,2524968,1919,1,1,-98.94446055864265,-8.053818789304152,0
0.07,1001,2526968,1935,1,1,-118.02585310355653,-24.490102373308602,0
0.072,1002,2528968,1885,0,1,-122.09860667473924,-37.77103424571878,0
0.074,1003,2530968,1886,0,1,-112.95836782740888,-47.50079547651364,0
0.076,1004,2532968,1927,0,1,-93.2398626464415,-53.58310090429572,0
0.078,1005,2534968,1965,0,1,-66.79969837019375,-56.203815582786,0
0.08,1006,2536968,2005,0,1,-38.22773693689294,-55.775489618023435,0
0.082,1007,2538968,2055,0,1,-11.900493135503616,-52.85930498478765,0
0.084,1008,2540968,2066,0,1,8.983899058197009,-48.08183085419497,0
0.086,1009,2542968,2066,0,1,23.0456188458433,-42.0617919012255,0
0.088,1010,2544968,2041,1,1,30.566099054689015,-35.36254580321588,0
0.09,1011,2546968,2066,1,1,32.62779568501942,-28.471756939888614,0
0.092,1012,2548968,2063,0,1,30.39706403726194,-21.792058796030354,0
0.094,1013,2550968,2057,0,1,25.06614242462243,-15.631283018720445,0
0.096001,1014,2552969,2042,0,1,18.018777100758193,-10.198901489906323,0
0.098,1015,2554968,2031,0,1,10.731031746353416,-5.615987388113862,0
0.1,1016,2556968,2023,0,1,4.472757247955553,-1.9346230182419681,0
0.102,1017,2558968,2025,0,1,0.06304397469110201,0.8412810553589178,0
0.104,1018,2560968,2031,0,1,-2.138062316894768,2.7401068831068613,0
0.106,1019,2562968,2021,0,1,-2.0263266759554543,3.813115385092246,0
0.108,1020,2564968,2009,1,1,0.32044446036892715,4.125988298183675,0
0.11,1021,2566968,2030,1,1,4.387566083735479,3.748020590127469,0
0.112,1022,2568968,2043,0,1,9.05515933675808,2.747197779468438,0
0.114,1023,2570968,2045,0,1,12.882343322771279,1.1975812227251579,0
0.116,1024,2572968,2057,0,1,14.56373355497335,-0.8082813670454483,0
0.118,1025,2574968,2053,0,1,13.266644264053177,-3.1500103146523255,0
0.12,1026,2576968,2041,0,1,8.824984487768326,-5.6757811837334495,0
0.122,1027,2578968,2037,0,1,1.7248691533628713,-8.207135862062222,0
0.124,1028,2580968,2029,0,1,-7.036656393258665,-10.550939466769883,0
0.126,1029,2582968,2024,0,1,-15.994776016626371,-12.513306424876173,0
0.128,1030,2584968,1989,1,1,-23.24608525665409,-13.915502822765179,0
0.13,1031,2586968,1961,1,1,-26.907888959968485,-14.618097326937246,0
0.132,1032,2588968,1999,0,1,-26.00914311030237,-14.550287077975744,0
0.134,1033,2590968,1995,0,1,-20.972110494063678,-13.724925749324749,0
0.136001,1034,2592969,2020,0,1,-13.283045545265933,-12.229855093549745,0
0.138,1035,2594968,2036,0,1,-4.868969618571334,-10.206355797582667,0
0.14,1036,2596968,2044,0,1,2.486264043182959,-7.823684373955679,0
0.142,1037,2598968,2058,0,1,7.647040732833275,-5.253664629458588,0
0.144,1038,2600968,2053,0,1,10.4657339436757,-2.6500270047883223,0
0.146,1039,2602968,2035,0,1,11.83559714118513,-0.13688358675261014,0
0.148,1040,2604968,1999,1,1,13.16018177725522,2.1874093501100553,0
0.15,1041,2606968,2031,1,1,15.270486267500178,4.23283556419082,0
0.152,1042,2608968,2056,0,1,17.724438337805193,5.907104067125498,0
0.154,1043,2610968,2065,0,1,19.25869055031096,7.128142135455388,0
0.156,1044,2612968,2063,0,1,18.817984245058206,7.8477914471719785,0
0.158,1045,2614968,2045,0,1,16.159098740085142,8.065202073007782,0
0.16,1046,2616968,2041,0,1,11.77960570024759,7.82352030075452,0
0.162,1047,2618968,2041,0,1,6.564406002357229,7.197343490349098,0
0.164,1048,2620968,2024,0,1,1.5605892577386604,6.279928274964954,0
0.166,1049,2622968,2021,0,1,-2.1590829768667392,5.170930190933748,0
0.168,1050,2624968,2003,1,1,-3.7750815823206727,3.961939621955188,0
0.17,1051,2626968,2020,1,1,-3.0934351230077577,2.7225552242621043,0
0.172,1052,2628968,2027,0,1,-0.7033867027225145,1.4943572451315026,0
0.174,1053,2630968,2039,0,1,2.279407522443926,0.2969862208761018,0
0.176001,1054,2632969,2042,0,1,4.693494785534643,-0.858386163711149,0
0.178,1055,2634968,2043,0,1,5.7219618376993315,-1.956193177945327,0
0.18,1056,2636968,2040,0,1,5.074448801505542,-2.9684809967523558,0
0.182,1057,2638968,2030,0,1,2.9651841152165677,-3.8531203344168046,0
0.184,1058,2640968,2029,0,1,-0.06821716297507807,-4.557915039654187,0
0.186,1059,2642968,2037,0,1,-3.32619257858968,-5.02685106939938,0
0.188,1060,2644968,2004,1,1,-5.985471784082653,-5.205660166556234,0
0.19,1061,2646968,2009,1,1,-7.304791789970364,-5.051274575060308,0
0.192,1062,2648968,2021,0,1,-7.0387280765596305,-4.5446290166250005,0
0.194,1063,2650968,2027,0,1,-5.526844328733541,-3.6951675806267756,0
0.196,1064,2652968,2027,0,1,-3.3552366252699004,-2.534583752990881,0
0.198,1065,2654968,2037,0,1,-1.0230392695746064,-1.1087138900654465,0
0.2,1066,2656968,2027,0,1,1.2081800340356437,0.5280647766287767,0
0.202,1067,2658968,2043,0,1,3.345043831675415,2.316405713438845,0
0.204,1068,2660968,2029,0,1,5.638093777654449,4.194397295724409,0
0.206,1069,2662968,2039,0,1,8.511511644321,6.098949483932513,0
0.208,1070,2664968,2007,1,1,12.302145549350545,7.9636680529670025,0
0.21,1071,2666968,2040,1,1,16.746692197059204,9.712624207319845,0
0.212,1072,2668968,2063,0,1,20.69881697352263,11.259917344282265,0
0.214,1073,2670968,2075,0,1,22.644455183528663,12.525702983055545,0
0.216001,1074,2672969,2065,0,1,21.644135585256233,13.459652883433186,0
0.218,1075,2674968,2055,0,1,17.851230129028764,14.052904429280698,0
0.22,1076,2676968,2044,0,1,12.406039649240086,14.333227097706036,0
0.222,1077,2678968,2028,0,1,7.02491017437022,14.35003324628979,0
0.224,1078,2680968,2019,0,1,3.5033167115752906,14.155454160727281,0
0.226,1079,2682968,2013,0,1,3.1987964654312036,13.78558241667746,0
0.228,1080,2684968,2002,1,1,6.526581773280781,13.245407842268015,0
0.23,1081,2686968,2031,1,1,12.537220170825048,12.500945017900662,0
0.232,1082,2688968,2075,0,1,18.991179498288485,11.487267579825883,0
0.234,1083,2690968,2083,0,1,23.330345137570784,10.138661477452187,0
0.236,1084,2692968,2075,0,1,23.984000078140667,8.426224168716784,0
0.238,1085,2694968,2053,0,1,20.972044293016694,6.378425657492897,0
0.24,1086,2696968,2029,0,1,15.515685440864296,4.076307404417634,0
0.242,1087,2698968,2031,0,1,9.152585254579693,1.6329080064208261,0
0.244,1088,2700968,2014,0,1,3.0024224507682202,-0.8286369320496583,0
0.246,1089,2702968,2026,0,1,-2.531509975894391,-3.1903406601046775,0
0.248,1090,2704968,2031,1,1,-7.643610789318714,-5.3464957114444935,0
0.25,1091,2706968,2042,1,1,-12.601594185488619,-7.202131041019008,0
0.252,1092,2708968,2009,0,1,-17.102766942580097,-8.668507930239128,0
0.254,1093,2710968,1996,0,1,-20.155223706920236,-9.668474997266383,0
0.256001,1094,2712969,1990,0,1,-20.67767896416258,-10.154838145580353,0
0.258,1095,2714968,1999,0,1,-18.227413881503654,-10.128554726710487,0
0.26,1096,2716968,2011,0,1,-13.28637487549192,-9.643895217179393,0
0.262,1097,2718968,2031,0,1,-7.051651690865514,-8.79888091393519,0
0.264,1098,2720968,2039,0,1,-0.9258751822553846,-7.7156950064698595,0
0.266,1099,2722968,2043,0,1,4.011149073026623,-6.518605455005936,0
0.268,1100,2724968,2023,1,1,7.2069928643306165,-5.318472142165879,0
0.27,1101,2726968,2055,1,1,8.451702872530316,-4.206978683008785,0
0.272,1102,2728968,2041,0,1,7.750699261353152,-3.2528474421315776,0
0.274,1103,2730968,2041,0,1,5.488648943303877,-2.4958949938047317,0
0.276,1104,2732968,2020,0,1,2.4698888355746007,-1.9470407083173833,0
0.278,1105,2734968,2020,0,1,-0.4135189349649213,-1.5984856167947559,0
0.28,1106,2736968,2023,0,1,-2.587070630726802,-1.4368479257971383,0
0.282,1107,2738968,2026,0,1,-3.9142294749164614,-1.4507036156210429,0
0.284,1108,2740968,2025,0,1,-4.5272809333096315,-1.6313759639830487,0
0.286,1109,2742968,2023,0,1,-4.635862853936926,-1.971829344036033,0
0.288,1110,2744968,2023,1,1,-4.473387010629311,-2.466876874633506,0
0.29,1111,2746968,2038,1,1,-4.271447457011936,-3.11279052047102,0
0.292,1112,2748968,2026,0,1,-4.100186232409984,-3.903474613709026,0
0.294,1113,2750968,2010,0,1,-3.7802358497038897,-4.827602408407286,0
0.296001,1114,2752969,2023,0,1,-3.161343366100393,-5.872654513523348,0
0.298,1115,2754968,2029,0,1,-2.4422988990763552,-7.029313660367803,0
0.3,1116,2756968,2023,0,1,-2.120851793319381,-8.28805170697616,0
0.302,1117,2758968,2042,0,1,-2.7435304184785103,-9.631649299805364,0
0.304,1118,2760968,2036,0,1,-4.610655527521434,-11.027567145101763,0
0.306,1119,2762968,2025,0,1,-7.471577303325919,-12.421801366238887,0
0.308,1120,2764968,2010,1,1,-10.51643184954888,-13.740751181212074,0
0.31,1121,2766968,2007,1,1,-12.775737183986479,-14.902941966459183,0
0.312,1122,2768968,2015,0,1,-13.556254770589758,-15.83213065351068,0
0.314,1123,2770968,2005,0,1,-12.599666085971975,-16.464212403907354,0
0.316,1124,2772968,2012,0,1,-10.092759422800953,-16.749432943945912,0
0.318,1125,2774968,2028,0,1,-6.6688573301918606,-16.652318651213758,0
0.32,1126,2776968,2025,0,1,-3.252607761408423,-16.14681643845826,0
0.322,1127,2778968,2037,0,1,-0.7751800811980734,-15.20823854780573,0
0.324,1128,2780968,2032,0,1,0.03741597504307004,-13.807462875748202,0
0.326,1129,2782968,2045,0,1,-1.1825023982406684,-11.908545418548348,0
0.328,1130,2784968,2024,1,1,-4.292458774167743,-9.46966366546646,0
0.33,1131,2786968,2035,1,1,-8.578853927962225,-6.449517335647671,0
0.332,1132,2788968,2005,0,1,-12.852416930549495,-2.8199495842779303,0
0.334,1133,2790968,2004,0,1,-15.738536563324882,1.4159570730473003,0
0.336001,1134,2792969,2014,0,1,-16.0795786577857,6.20422792665703,0
0.338,1135,2794968,2014,0,1,-13.106421619356677,11.428070587984735,0
0.34,1136,2796968,2023,0,1,-6.307877520643066,16.90725020913101,0
0.342,1137,2798968,2025,0,1,4.666180883608568,22.40363893898501,0
0.344,1138,2800968,2036,0,1,19.88209108417429,27.630142363747556,0
0.346,1139,2802968,2042,0,1,38.79961038844695,32.26373863723271,0
0.348,1140,2804968,2031,1,1,59.689633568666004,35.96116214898081,0
0.35,1141,2806968,2121,1,1,78.99419150735046,38.379768960273715,0
0.352,1142,2808968,2183,0,1,91.72038648905259,39.221581891493486,0
0.354,1143,2810968,2199,0,1,93.54424238756326,38.307542355761086,0
0.356,1144,2812968,2142,0,1,83.16058457641158,35.645045192162904,0
0.358,1145,2814968,2100,0,1,62.895750625824654,31.442932562277758,0
0.36,1146,2816968,2038,0,1,37.4520602452136,26.069309561252904,0
0.362,1147,2818968,2005,0,1,11.965646948559879,19.979165456962832,0
0.364,1148,2820968,1995,0,1,-9.590281111229707,13.639814611734707,0
0.366,1149,2822968,2007,0,1,-25.030404913219634,7.475059990777913,0
0.368,1150,2824968,1970,1,1,-33.637902661982174,1.834428413588597,0
0.37,1151,2826968,1983,1,1,-35.740766571666086,-3.024896666449905,0
0.372,1152,2828968,2003,0,1,-32.59120396327069,-6.949801262165632,0
0.374,1153,2830968,2005,0,1,-26.072091455635913,-9.887571443583502,0
0.376001,1154,2832969,2025,0,1,-18.14921574526433,-11.867183420382993,0
0.378,1155,2834968,2022,0,1,-10.463315835370008,-12.976424852326174,0
0.38,1156,2836968,2035,0,1,-4.1648336508080455,-13.340344828377251,0
0.382,1157,2838968,2039,0,1,0.12541630099440404,-13.101825322019685,0
0.384,1158,2840968,2030,0,1,2.31174029442016,-12.405000540389022,0
0.386,1159,2842968,2041,0,1,2.7423354291968702,-11.383626771957047,0
0.388,1160,2844968,2010,1,1,1.9997387386410317,-10.155954694104242,0
0.39,1161,2846968,2038,1,1,0.5906979949352991,-8.825279916299795,0
0.392,1162,2848968,2031,0,1,-1.217625437247242,-7.480561246739553,0
0.394,1163,2850968,2028,0,1,-3.2191957516826903,-6.192493990615149,0
0.396,1164,2852968,2024,0,1,-5.065697900550164,-5.010736478123023,0
0.398,1165,2854968,2012,0,1,-6.340301781459284,-3.9677252276644737,0
0.4,1166,2856968,2011,0,1,-6.833675890729319,-3.086885032791063,0
0.402,1167,2858968,2031,0,1,-6.778320511595861,-2.3896117107020975,0
0.404,1168,2860968,2029,0,1,-6.72394476668189,-1.8943086551631554,0
0.406,1169,2862968,2037,0,1,-7.0894660089741635,-1.6083744392050956,0
0.408,1170,2864968,2011,1,1,-7.848237911467338,-1.522797426432533,0
0.41,1171,2866968,2027,1,1,-8.62081901139606,-1.6152813184931933,0
0.412,1172,2868968,2015,0,1,-8.946917595581484,-1.8573429496331948,0
0.414,1173,2870968,2009,0,1,-8.477989360765335,-2.2197252306746185,0
0.416001,1174,2872969,2020,0,1,-7.165350045326086,-2.6768972099135553,0
0.418,1175,2874968,2022,0,1,-5.38420767368195,-3.208996290038126,0
0.42,1176,2876968,2021,0,1,-3.8515153166030993,-3.798441329984816,0
0.422,1177,2878968,2037,0,1,-3.4563537117475347,-4.424197435651951,0
0.424,1178,2880968,2041,0,1,-4.988080958769434,-5.054580180720634,0
0.426,1179,2882968,2036,1,1,-8.695661616504538,-5.638710614917981,0
0.428,1180,2884968,2012,1,1,-13.999585477065313,-6.104112577947874,0
0.43,1181,2886968,2018,1,1,-19.63653911073909,-6.366247074584714,0
0.432,1182,2888968,1991,0,1,-24.03834982071655,-6.345096446647706,0
0.434,1183,2890968,1983,0,1,-25.776883930669715,-5.983415776369189,0
0.436,1184,2892968,1991,0,1,-24.10432044166953,-5.264665514123964,0
0.438,1185,2894968,1998,0,1,-19.329492434198492,-4.223251429866002,0
0.44,1186,2896968,2024,0,1,-12.737841652200329,-2.9401613092000742,0
0.442,1187,2898968,2035,0,1,-6.104041686865292,-1.5254692559550476,0
0.444,1188,2900968,2040,0,1,-1.0553516903286886,-0.09484291410539392,0
0.446,1189,2902968,2063,0,1,1.4692730814360093,1.2522655862142589,0
0.448,1190,2904968,2018,1,1,1.53306672316244,2.447500664225789,0
0.45,1191,2906968,2025,1,1,0.01541122661407468,3.454633763579351,0
0.452,1192,2908968,2024,0,1,-2.0328278949217546,4.257566569148419,0
0.454,1193,2910968,2021,0,1,-3.8392288696544288,4.849410223170924,0
0.456001,1194,2912969,2022,0,1,-4.950721327868821,5.228478560198759,0
0.458,1195,2914968,2012,0,1,-5.222423072577338,5.395471638740169,0
0.46,1196,2916968,2023,0,1,-4.899707343976321,5.349790740925259,0
0.462,1197,2918968,2041,0,1,-4.577508823075311,5.089524580466355,0
0.464,1198,2920968,2029,0,1,-4.837780539618881,4.618699961647278,0
0.466,1199,2922968,2037,0,1,-5.825912620064846,3.9558311684452065,0
0.468,1200,2924968,2005,1,1,-7.182520836063789,3.134751964472776,0
0.47,1201,2926968,2024,1,1,-8.369334963250267,2.1967545270707327,0
0.472,1202,2928968,2019,0,1,-9.020100622148679,1.1817985512231006,0
0.474,1203,2930968,2012,0,1,-9.015526911275362,0.12547699457140649,0
0.476,1204,2932968,2021,0,1,-8.467218532130165,-0.9413583413408312,0
0.478,1205,2934968,2019,0,1,-7.7505922078468785,-1.9929262620174357,0
0.48,1206,2936968,2020,0,1,-7.467047506931115,-3.006694269645987,0
0.482,1207,2938968,2037,0,1,-8.308322155957788,-3.959497891917055,0
0.484,1208,2940968,2025,0,1,-10.785568555532775,-4.821816568888321,0
0.486,1209,2942968,2037,0,1,-14.872172460518163,-5.552218025061333,0
0.488,1210,2944968,2009,1,1,-19.77300088756466,-6.096864854997909,0
0.49,1211,2946968,1998,1,1,-24.0295036232472,-6.398049142315244,0
0.492,1212,2948968,1988,0,1,-26.0286966625595,-6.411747272361854,0
0.494,1213,2950968,1975,0,1,-24.697112061505393,-6.127556413652449,0
0.496001,1214,2952969,1998,0,1,-20.08036641706994,-5.582590657969902,0
0.498,1215,2954968,2027,0,1,-13.462314990398871,-4.860892196905896,0
0.5,1216,2956968,2035,0,1,-6.789468915080961,-4.073904322390113,0
0.502,1217,2958968,2043,0,1,-1.8148264181064633,-3.3322088978226736,0
0.504,1218,2960968,2041,0,1,0.4337222350463845,-2.7235266897919974,0
0.506,1219,2962968,2057,0,1,-0.14714410760481111,-2.300005492569625,0
0.508,1220,2964968,2010,1,1,-2.6953673710812365,-2.073138478666693,0
0.51,1221,2966968,2019,1,1,-5.726405079881032,-2.02097044021056,0
0.512,1222,2968968,2007,0,1,-7.839256877261669,-2.1059057763683895,0
0.514,1223,2970968,2008,0,1,-8.259611750318523,-2.290545300722093,0
0.516,1224,2972968,2017,0,1,-7.024602349644341,-2.5455324267222093,0
0.518,1225,2974968,2025,0,1,-4.9091472999314245,-2.8501243596087047,0
0.52,1226,2976968,2039,0,1,-3.0948051578331612,-3.1855270468167247,0
0.522,1227,2978968,2040,0,1,-2.672617625997664,-3.5239448163252947,0
0.524,1228,2980968,2037,0,1,-4.196000731534795,-3.819357413932848,0
0.526,1229,2982968,2041,0,1,-7.429485512055371,-4.0045140423058925,0
0.528,1230,2984968,2003,1,1,-11.350528241923309,-3.9960516699304587,0
0.53,1231,2986968,2001,1,1,-14.563534709642397,-3.7103827116113983,0
0.532,1232,2988968,2009,0,1,-15.989624077369594,-3.0859682966671644,0
0.534,1233,2990968,2006,0,1,-15.243517942748454,-2.0981671391886825,0
0.536001,1234,2992969,2023,0,1,-12.529520762429051,-0.7615703921191022,0
0.538,1235,2994968,2023,0,1,-8.353631439382449,0.8750642314204113,0
0.54,1236,2996968,2023,0,1,-3.277381913868571,2.7365946693332797,0
0.542,1237,2998968,2039,0,1,2.164888225089184,4.728821350275191,0
0.544,1238,3000968,2040,0,1,7.492396735932058,6.746516023061777,0
0.546,1239,3002968,2035,0,1,12.33114470384258,8.682835390785293,0
0.548,1240,3004968,2040,1,1,16.30552873519185,10.435552869532875,0
0.55,1241,3006968,2069,0,1,18.896455019132166,11.911896359993824,0
0.552,1242,3008968,2063,0,1,19.699615090131704,13.039764975910511,0
0.554,1243,3010968,2041,0,1,18.85985023149556,13.780051887360223,0
0.556,1244,3012968,2041,0,1,16.998394050653992,14.126053646501486,0
0.558,1245,3014968,2023,0,1,14.643218904056937,14.090416640842268,0
0.56,1246,3016968,2088,0,1,11.911534705029396,13.695313358088987,0
0.562,1247,3018968,2024,0,1,8.929367683048369,12.976256637218214,0
0.564,1248,3020968,2029,0,1,6.279597414593462,11.985994368101398,0
0.566,1249,3022968,2031,1,1,4.677599185954125,10.783133290206607,0
0.568,1250,3024968,2015,1,1,4.41772430534631,9.41709964353244,0
0.57,1251,3026968,2041,0,1,5.176677210521633,7.9220640846128845,0
0.572,1252,3028968,2042,0,1,6.1346666668871865,6.319538823405672,0
0.574,1253,3030968,2053,0,1,6.40952420413364,4.629004720435938,0
0.576001,1254,3032969,2044,0,1,5.562710969785068,2.88049967175935,0
0.578,1255,3034968,2013,0,1,3.7192879970229633,1.1187497658252559,0
0.58,1256,3036968,2039,0,1,1.1773639685659854,-0.6043568858822166,0
0.582,1257,3038968,2029,0,1,-1.965893014781069,-2.2385153907941255,0
0.584,1258,3040968,2037,0,1,-5.689586525146087,-3.735110798854638,0
0.586,1259,3042968,2031,1,1,-9.684265176651985,-5.043588013051308,0
0.588,1260,3044968,1995,1,1,-13.229059397928028,-6.113453421974267,0
0.59,1261,3046968,2022,0,1,-15.50102338412731,-6.905096231430854,0
0.592,1262,3048968,2009,0,1,-15.943379152087616,-7.400959095873588,0
0.594,1263,3050968,2001,0,1,-14.33980919570859,-7.608857900948093,0
0.596,1264,3052968,2019,0,1,-10.878541412726491,-7.5621495608928395,0
0.598,1265,3054968,2011,0,1,-6.287342014134441,-7.3180690420335575,0
0.6,1266,3056968,2039,0,1,-1.7867765520218266,-6.949699010834859,0
0.602,1267,3058968,2043,0,1,1.2045254730533466,-6.531531135525914,0
0.604,1268,3060968,2054,0,1,1.5808473279103397,-6.1212614772108145,0
0.606,1269,3062968,2054,1,1,-0.8916399728636095,-5.743415112741843,0
0.608,1270,3064968,2009,1,1,-5.323196039213236,-5.383518735153844,0
0.61,1271,3066968,2021,0,1,-10.072580012491493,-4.99936081505633,0
0.612,1272,3068968,1999,0,1,-13.488692890710029,-4.542918863226992,0
0.614,1273,3070968,1992,0,1,-14.508567687096134,-3.98025966958312,0
0.616001,1274,3072969,2021,0,1,-13.008167234525061,-3.304688143866718,0
0.618,1275,3074968,2023,0,1,-9.742208254279085,-2.538174810311613,0
0.62,1276,3076968,2031,0,1,-5.834637275213176,-1.72004007687431,0
0.622,1277,3078968,2035,0,1,-2.298547525331897,-0.8933876206523237,0
0.624,1278,3080968,2030,0,1,0.14611297511363075,-0.09628343353142266,0
0.626,1279,3082968,2043,1,1,1.0810541536883953,0.6431407212883686,0
0.628,1280,3084968,2039,1,1,0.4191873547946319,1.3103141901797413,0
0.63,1281,3086968,2037,0,1,-1.4734636459631985,1.9072975291163732,0
0.632,1282,3088968,2013,0,1,-3.789204689422273,2.450738284622158,0
0.634,1283,3090968,2021,0,1,-5.6153988220273705,2.9615543525143586,0
0.636,1284,3092968,2019,0,1,-6.342627917451541,3.4526176893987444,0
0.638,1285,3094968,2023,0,1,-5.795509997598753,3.92274388699206,0
0.64,1286,3096968,2024,0,1,-4.1408108867735995,4.356929173091415,0
0.642,1287,3098968,2030,0,1,-1.7775000532651593,4.7291430366297,0
0.644,1288,3100968,2029,0,1,0.74791125850449,5.006574329746082,0
0.646,1289,3102968,2039,1,1,2.8149077912347953,5.1549651477179825,0
0.648,1290,3104968,2044,1,1,3.852716232799988,5.145335355350188,0
0.65,1291,3106968,2044,0,1,3.5658440529727855,4.962077474344734,0
0.652,1292,3108968,2031,0,1,2.107943268402682,4.608468965625542,0
0.654,1293,3110968,2032,0,1,0.0060389712960877695,4.105220142720424,0
0.656001,1294,3112969,2019,0,1,-2.1058109665417324,3.4834200328947507,0
0.658,1295,3114968,2021,0,1,-3.7728946442866924,2.7760293894348793,0
0.66,1296,3116968,2027,0,1,-4.90292554471219,2.0113377743677487,0
0.662,1297,3118968,2029,0,1,-5.715409417198183,1.2116725391380496,0
0.664,1298,3120968,2025,0,1,-6.514964433715621,0.39641401971059353,0
0.666,1299,3122968,2039,1,1,-7.4775384054257845,-0.4146809148504249,0
0.668,1300,3124968,2009,1,1,-8.525501101451404,-1.1997801489051974,0
0.67,1301,3126968,2029,0,1,-9.392525542525174,-1.9371318580005084,0
0.672,1302,3128968,2012,0,1,-9.83522363412043,-2.6101093024945574,0
0.674,1303,3130968,2021,0,1,-9.77350418205412,-3.2104825836177366,0
0.676,1304,3132968,2024,0,1,-9.319964911721145,-3.7387878028867028,0
0.678,1305,3134968,2019,0,1,-8.726884215577485,-4.202264185037066,0
0.68,1306,3136968,2026,0,1,-8.307432154649199,-4.611680303121911,0
0.682,1307,3138968,2029,0,1,-8.371497620830834,-4.978264176312376,0
0.684,1308,3140968,2022,0,1,-9.117397869451178,-5.310100108673837,0
0.686,1309,3142968,2037,1,1,-10.5051057287845,-5.6089852699964755,0
0.688,1310,3144968,2014,1,1,-12.153026327902348,-5.868878438503256,0
0.69,1311,3146968,2025,0,1,-13.331382751773056,-6.077308635289366,0
0.692,1312,3148968,1992,0,1,-13.192603057209759,-6.2219022444194545,0
0.694,1313,3150968,2008,0,1,-11.255644804880045,-6.301243634159341,0
0.696001,1314,3152969,2023,0,1,-7.84110821047069,-6.332860098489105,0
0.698,1315,3154968,2025,0,1,-4.033565996838373,-6.349359800464606,0
0.7,1316,3156968,2053,0,1,-1.2133480790271096,-6.384116749360951,0
0.702,1317,3158968,2036,0,1,-0.49388846560908295,-6.454830405342841,0
0.704,1318,3160968,2038,0,1,-2.3445362526969964,-6.552622669248174,0
0.706,1319,3162968,2055,1,1,-6.4660408890720955,-6.6397128243588375,0
0.708,1320,3164968,2007,1,1,-11.71693675909588,-6.652407611877177,0
0.71,1321,3166968,2001,0,1,-16.327429983791795,-6.513467950683996,0
0.712,1322,3168968,1992,0,1,-18.667325386320606,-6.157146856506836,0
0.714,1323,3170968,1998,0,1,-18.00863272058794,-5.55305519958963,0
0.716,1324,3172968,2009,0,1,-14.780262614266839,-4.71633429062314,0
0.718,1325,3174968,2030,0,1,-10.351054218153202,-3.7035712966145384,0
0.72,1326,3176968,2052,0,1,-6.413190441559201,-2.596438017658972,0
0.722,1327,3178968,2039,0,1,-4.1669856346625584,-1.4790594085842335,0
0.724,1328,3180968,2035,0,1,-3.8243895765102143,-0.42183867421599075,0
0.726,1329,3182968,2023,1,1,-4.736353848552607,0.520423255056885,0
0.728,1330,3184968,2011,1,1,-5.9148502252833906,1.3002487364341615,0
0.73,1331,3186968,2023,0,1,-6.582330237123173,1.8672196984290066,0
0.732,1332,3188968,2024,0,1,-6.439418004525349,2.1632937740464167,0
0.734,1333,3190968,2026,0,1,-5.562431364843246,2.126607802125797,0
0.736001,1334,3192969,2026,0,1,-4.205623329611875,1.6988133127076517,0
0.738,1335,3194968,2028,0,1,-2.7257182158123285,0.831496225954468,0
0.74,1336,3196968,2037,0,1,-1.549758557652202,-0.5072842029764273,0
0.742,1337,3198968,2038,0,1,-1.0451708303415321,-2.3242934446395065,0
0.744,1338,3200968,2035,0,1,-1.3232896457714718,-4.591743308342189,0
0.746,1339,3202968,2036,1,1,-2.1336408907393443,-7.241144691123372,0
0.748,1340,3204968,2009,1,1,-2.973804890512972,-10.163302762154292,0
0.75,1341,3206968,2037,0,1,-3.409885764438431,-13.214284874151343,0
0.752,1342,3208968,2023,0,1,-3.301545151450366,-16.220928806768953,0
0.754,1343,3210968,2027,0,1,-2.7445117189760913,-18.981895339514487,0
0.756,1344,3212968,2023,0,1,-2.0216904964465554,-21.270053184873785,0
0.758,1345,3214968,2020,0,1,-1.7230844363494358,-22.83974189679593,0
0.76,1346,3216968,2040,0,1,-2.825632123914062,-23.43543504163604,0
0.762,1347,3218968,2036,0,1,-6.4810577250218495,-22.79781519268054,0
0.764,1348,3220968,2037,0,1,-13.526989472745166,-20.668904070081624,0
0.766,1349,3222968,2037,1,1,-23.975950787587067,-16.802606592435296,0
0.768,1350,3224968,2012,1,1,-36.61475746069958,-10.98390167810921,0
0.77,1351,3226968,1974,0,1,-48.941252784889215,-3.060227445383551,0
0.772,1352,3228968,1955,0,1,-57.7633685599714,7.011592238075517,0
0.774,1353,3230968,1950,0,1,-60.21576804060739,19.11280495875507,0
0.776001,1354,3232969,1978,0,1,-54.47458405521982,32.924866114312216,0
0.778,1355,3234968,1992,0,1,-39.75519408155306,47.919960261585125,0
0.78,1356,3236968,2025,0,1,-15.832191790803133,63.37890932838044,0
0.782,1357,3238968,2043,0,1,17.380826553974092,78.42756630744506,0
0.784,1358,3240968,2065,0,1,59.79622692756861,92.08411858964965,0
0.786,1359,3242968,2055,1,1,110.3335264414627,103.31016669049568,0
0.788,1360,3244968,2059,1,1,165.0026864588511,111.05786583534618,0
0.79,1361,3246968,2281,0,1,214.92702708875356,114.3298747445983,0
0.792,1362,3248968,2445,0,1,247.49637858215348,112.30617872561082,0
0.794,1363,3250968,2447,0,1,251.8551276913676,104.54541486224622,0
0.796,1364,3252968,2336,0,1,224.53568982010177,91.15735335816632,0
0.798,1365,3254968,2187,0,1,170.5480626399648,72.83671192037224,0
0.8,1366,3256968,2067,0,1,99.97642753177075,50.753454652051275,0
0.802,1367,3258968,2003,0,1,23.34625607565942,26.371653850865645,0
0.804,1368,3260968,1955,0,1,-51.32609495930787,1.2708730525266034,0
0.806,1369,3262968,1949,1,1,-118.83509887259572,-22.992660583376512,0
0.808,1370,3264968,1931,1,1,-175.0141407134322,-44.98147387605178,0
0.81,1371,3266968,1791,0,1,-214.55768450608855,-63.45092707642576,0
0.812,1372,3268968,1663,0,1,-231.13556895546802,-77.44607112189844,0
0.814,1373,3270968,1699,0,1,-220.8084680507809,-86.43118771821415,0
0.816001,1374,3272969,1801,0,1,-185.63715285313083,-90.38067682184806,0
0.818,1375,3274968,1912,0,1,-133.92871427881934,-89.75581942788725,0
0.82,1376,3276968,2015,0,1,-77.3466801262778,-85.3761338975601,0
0.822,1377,3278968,2087,0,1,-27.23463675392442,-78.24596655122045,0
0.824,1378,3280968,2119,0,1,8.273238472699404,-69.38739282421632,0
0.826,1379,3282968,2120,1,1,25.777784027861543,-59.71056126293651,0
0.828,1380,3284968,2079,1,1,26.67513053673747,-49.93807362419243,0
0.83,1381,3286968,2055,0,1,16.01352532022542,-40.58505881603191,0
0.832,1382,3288968,1977,0,1,0.6245816927353314,-31.984307993544736,0
0.834,1383,3290968,1963,0,1,-13.089332612734202,-24.34137718614955,0
0.836,1384,3292968,1979,0,1,-21.08645731934412,-17.7964393443974,0
0.838,1385,3294968,1992,0,1,-22.379032314526125,-12.463428001298222,0
0.84,1386,3296968,2008,0,1,-18.431280000549343,-8.438030772204101,0
0.842,1387,3298968,2035,0,1,-12.110116422707417,-5.788493950598472,0
0.844,1388,3300968,2038,0,1,-6.686448881861493,-4.540256599305245,0
0.846,1389,3302968,2053,1,1,-5.011082297446325,-4.660452704545843,0
0.848,1390,3304968,2065,1,1,-8.864355466156637,-6.046668608795557,0
0.85,1391,3306968,2075,0,1,-18.21905350883096,-8.518781550413358,0
0.852,1392,3308968,1988,0,1,-30.62887759144368,-11.820423720295445,0
0.854,1393,3310968,1937,0,1,-41.86052525771915,-15.651605257384922,0
0.856001,1394,3312969,1947,0,1,-47.99995795835249,-19.732992004116124,0
0.858,1395,3314968,1956,0,1,-47.338199087875694,-23.86201694495283,0
0.86,1396,3316968,1983,0,1,-40.73766167850495,-27.929363456050762,0
0.862,1397,3318968,2026,0,1,-30.841613269304144,-31.90044368237075,0
0.864,1398,3320968,2044,0,1,-20.75506518276162,-35.77589605110962,0
0.866,1399,3322968,2042,1,1,-12.728291794978677,-39.5461786971967,0
0.868,1400,3324968,2025,1,1,-7.561359568552996,-43.15984613016555,0
0.87,1401,3326968,2031,0,1,-4.9292091121302715,-46.51371138638334,0
0.872,1402,3328968,2027,0,1,-4.034135538537673,-49.455366786501294,0
0.874,1403,3330968,2023,0,1,-4.039231786405072,-51.78765091312965,0
0.876,1404,3332968,2015,0,1,-4.335988744816708,-53.27552104958563,0
0.878,1405,3334968,2023,0,1,-4.812074374803082,-53.657760485848215,0
0.88,1406,3336968,2034,0,1,-5.941734575612186,-52.659365974932086,0
0.882,1407,3338968,2043,0,1,-8.46798171299855,-49.99994114668345,0
0.884,1408,3340968,2035,0,1,-12.811855713547164,-45.401234065654556,0
0.886,1409,3342968,2019,1,1,-18.65095890698174,-38.60311290130447,0
0.888,1410,3344968,2003,1,1,-24.983273637718646,-29.394037034289454,0
0.89,1411,3346968,2011,0,1,-30.509741572658477,-17.651232049722093,0
0.892,1412,3348968,2004,0,1,-33.86656085739985,-3.3785871256651383,0
0.894,1413,3350968,2013,0,1,-33.53561456989712,13.264502772239851,0
0.896001,1414,3352969,2035,0,1,-27.563784438002394,31.944353729547338,0
0.898,1415,3354968,2025,0,1,-13.216145972775742,52.145501932214145,0
0.9,1416,3356968,2035,0,1,13.042128009076727,73.17083288694658,0
0.902,1417,3358968,2035,0,1,54.754645694533295,94.14468576703058,0
0.904,1418,3360968,2041,0,1,113.7797861946005,114.02240036447445,0
0.906,1419,3362968,2024,1,1,187.61206348402314,131.60928333351484,0
0.908,1420,3364968,2201,1,1,266.2488221364748,145.6006961767896,0
0.91,1421,3366968,2540,0,1,331.7686081305217,154.69931355405123,0
0.912,1422,3368968,2686,0,1,364.2511999927815,157.86283989271402,1
0.914,1423,3370968,2613,0,1,351.66610405432414,154.60597136452066,0
0.916,1424,3372968,2407,0,1,296.13178651957026,145.17568898403886,0
0.918,1425,3374968,2196,0,1,212.3854793340577,130.49928939489803,0
0.92,1426,3376968,2022,0,1,120.9034449100767,111.95661510231542,0
0.922,1427,3378968,1941,0,1,40.396787928818995,91.09318405209261,0
0.924,1428,3380968,1906,0,1,-17.10326680708197,69.37091791273565,0
0.926,1429,3382968,1925,1,1,-47.7203907688237,48.004452180057996,0
0.928,1430,3384968,1966,1,1,-54.55807340587773,27.888440536844712,0
0.93,1431,3386968,2023,0,1,-45.078389297740586,9.600018942692856,0
0.932,1432,3388968,2060,0,1,-28.046800564769338,-6.547240976801888,0
0.934,1433,3390968,2068,0,1,-10.960834432837533,-20.427343767489575,0
0.936,1434,3392968,2073,0,1,1.3382454515476958,-32.03185261626348,0
0.938,1435,3394968,2059,0,1,6.824058925331378,-41.41972670194427,0
0.94,1436,3396968,2039,0,1,5.660715055425049,-48.68744201954658,0
0.942,1437,3398968,2035,0,1,-0.7429849209814137,-53.95518209305667,0
0.944,1438,3400968,2023,0,1,-10.541207789175104,-57.36131196761517,0
0.946,1439,3402968,2023,1,1,-21.798531757433206,-59.057742682309204,0
0.948,1440,3404968,1997,1,1,-32.486805836710225,-59.20613945205609,0
0.95,1441,3406968,1989,0,1,-40.513489358978426,-57.97973137949037,0
0.952,1442,3408968,1958,0,1,-44.0655244521714,-55.57312300642113,0
0.954,1443,3410968,1966,0,1,-42.26745053939499,-52.21663626869533,0
0.956,1444,3412968,1995,0,1,-35.7418967483651,-48.18403557291414,0
0.958,1445,3414968,2013,0,1,-26.496603826941083,-43.78075160677486,0
0.96,1446,3416968,2035,0,1,-17.15968330158823,-39.31379013848894,0
0.962,1447,3418968,2045,0,1,-10.11489294632983,-35.05709842904886,0
0.964,1448,3420968,2041,0,1,-6.904626994018663,-31.223576499127542,0
0.966,1449,3422968,2057,1,1,-7.943608253216791,-27.94819902308911,0
0.968,1450,3424968,2019,1,1,-12.450813670867191,-25.282734451332566,0
0.97,1451,3426968,2026,0,1,-18.645284245309927,-23.203451542302837,0
0.972,1452,3428968,1981,0,1,-24.29341606028862,-21.632114916766454,0
0.974,1453,3430968,1974,0,1,-27.560225805064583,-20.466327735520274,0
0.976,1454,3432968,2003,0,1,-27.870125160777985,-19.609713296468605,0
0.978,1455,3434968,2008,0,1,-26.10700264782321,-18.98570913577541,0
0.98,1456,3436968,2023,0,1,-23.997518066000218,-18.53078743862977,0
0.982,1457,3438968,2037,0,1,-23.276006397499316,-18.179976789601326,0
0.984,1458,3440968,2035,0,1,-24.95395327735197,-17.85354026752557,0
0.986,1459,3442968,2023,1,1,-28.794057004527183,-17.449359781846812,0
0.988,1460,3444968,1981,1,1,-33.34064278474214,-16.849401638944144,0
0.99,1461,3446968,1991,0,1,-36.65617343035248,-15.94276941894873,0
0.992,1462,3448968,1980,0,1,-37.234553666252076,-14.652703445401928,0
0.994,1463,3450968,1988,0,1,-34.4951880934736,-12.952859692027,0
0.996,1464,3452968,1997,0,1,-28.884991586130933,-10.871089899801795,0
0.998,1465,3454968,2019,0,1,-21.745083203380577,-8.482961541524176,0
1.0,1466,3456968,2035,0,1,-14.886006457614048,-5.894733115039013,0
1.002,1467,3458968,2045,0,1,-9.950527222868887,-3.2195595741814422,0
1.004,1468,3460968,2040,0,1,-7.855984160406367,-0.5556049278760469,0
1.006,1469,3462968,2041,1,1,-8.55807012566934,2.026517079447874,0
1.008,1470,3464968,2021,1,1,-11.152214557326126,4.485136460697383,0
1.01,1471,3466968,2012,0,1,-14.253352333508074,6.798949383659782,0
1.012,1472,3468968,2007,0,1,-16.556586539568208,8.9518190435783,0
1.014,1473,3470968,2011,0,1,-17.307459581540225,10.918505136521052,0
1.016,1474,3472968,2023,0,1,-16.425832322184885,12.658481025740832,0
1.018,1475,3474968,2011,0,1,-14.335545827410431,14.118121318763366,0
1.02,1476,3476968,2031,0,1,-11.779866646720887,15.236022803787385,0
1.022,1477,3478968,2043,0,1,-9.632020680016236,15.95069130531709,0
1.024,1478,3480968,2031,0,1,-8.533275296350523,16.212734888826304,0
1.026,1479,3482968,2023,1,1,-8.662651537584107,15.994239398608544,0
1.028,1480,3484968,2042,1,1,-9.87355898163635,15.28967107789479,0
1.03,1481,3486968,2025,0,1,-11.79739681639502,14.115753203265125,0
1.032,1482,3488968,2025,0,1,-13.775288168202275,12.51314309371493,0
1.034,1483,3490968,1997,0,1,-15.019035160501506,10.54250619833542,0
1.036,1484,3492968,2013,0,1,-15.115305181902377,8.273630248181599,0
1.038,1485,3494968,2020,0,1,-14.433667017562831,5.777235850950372,0
1.04,1486,3496968,2020,0,1,-14.05686420218489,3.127430389014509,0
1.042,1487,3498968,2035,0,1,-15.397013496491928,0.4108962293939007,0
1.044,1488,3500968,2038,0,1,-19.719213056837997,-2.263288831456917,0
1.046,1489,3502968,2025,1,1,-27.604124259727502,-4.756021085951524,0
1.048,1490,3504968,2020,1,1,-38.553716987354136,-6.898587654227019,0
1.05,1491,3506968,2012,0,1,-50.822674640912396,-8.50344393446705,0
1.052,1492,3508968,1947,0,1,-61.50359801952325,-9.384852732355341,0
1.054,1493,3510968,1931,0,1,-67.32188221830259,-9.395259226767012,0
1.056,1494,3512968,1931,0,1,-66.10214362338982,-8.47181476802579,0
1.058,1495,3514968,1960,0,1,-57.863570383269405,-6.667318405683211,0
1.06,1496,3516968,2007,0,1,-44.76245818756694,-4.146766100407458,0
1.062,1497,3518968,2028,0,1,-30.031142473475008,-1.152467644717027,0
1.064,1498,3520968,2043,0,1,-16.65368571079384,2.044265590829446,0
1.066,1499,3522968,2042,1,1,-6.550286499343882,5.184448279270891,0
1.068,1500,3524968,2039,1,1,-0.49335365069507553,8.046408482866932,0
1.07,1501,3526968,2057,0,1,1.5930903229742803,10.457901772583222,0
1.072,1502,3528968,2041,0,1,0.4299528937272372,12.30321141052817,0
1.074,1503,3530968,2025,0,1,-2.728351842702298,13.52505783210425,0
1.076,1504,3532968,2013,0,1,-6.500593917144964,14.11477530457374,0
1.078,1505,3534968,2026,0,1,-9.963903917962952,14.095028483913511,0
1.08,1506,3536968,2023,0,1,-12.87372401683731,13.50799539242594,0
1.082,1507,3538968,2025,0,1,-15.433654242094267,12.412334873794656,0
1.084,1508,3540968,2031,0,1,-17.949810660102678,10.883027377166663,0
1.086,1509,3542968,2005,1,1,-20.606190007861642,9.009393678194169,0
1.088,1510,3544968,2027,1,1,-23.46205712411928,6.8890695473821095,0
1.09,1511,3546968,2031,0,1,-26.433494948152784,4.622485680814281,0
1.092,1512,3548968,1999,0,1,-29.038398145218085,2.312191912733861,0
1.094,1513,3550968,1993,0,1,-30.423119673422878,0.05707926702981059,0
1.096,1514,3552968,1999,0,1,-29.93945915376591,-2.0630149870113295,0
1.098,1515,3554968,1981,0,1,-27.718597232415938,-4.000241586065427,0
1.1,1516,3556968,2041,0,1,-24.831267991835404,-5.740274273360667,0
1.102,1517,3558968,2021,0,1,-22.853947436081256,-7.289258273083458,0
1.104,1518,3560968,2043,0,1,-23.020442478724114,-8.651491066642304,0
1.106,1519,3562968,2020,1,1,-25.61266413075045,-9.813193129618222,0
1.108,1520,3564968,2019,1,1,-29.861717550960673,-10.739680567268476,0
1.11,1521,3566968,2003,0,1,-34.18511935743578,-11.38302712077658,0
1.112,1522,3568968,1966,0,1,-36.70952223294258,-11.698050652040102,0
1.114,1523,3570968,1981,0,1,-36.12628698259675,-11.66508487147685,0
1.116,1524,3572968,2005,0,1,-32.421911630253604,-11.307659872616053,0
1.118,1525,3574968,2024,0,1,-26.751599306448536,-10.688763590672636,0
1.12,1526,3576968,2010,0,1,-20.692614891463123,-9.890329546924914,0
1.122,1527,3578968,2037,0,1,-15.743187241479509,-8.994736015288495,0
1.124,1528,3580968,2054,0,1,-13.076467863827089,-8.071036443747039,0
1.126,1529,3582968,2035,1,1,-13.100845003449685,-7.159557489134551,0
1.128,1530,3584968,2013,1,1,-15.217193851606545,-6.264371164740995,0
1.13,1531,3586968,2029,0,1,-18.221371163588252,-5.363043462330854,0
1.132,1532,3588968,2005,0,1,-20.843181506177572,-4.42273726710178,0
1.134,1533,3590968,2009,0,1,-22.032842973844282,-3.413090838467887,0
1.136,1534,3592968,2010,0,1,-21.18861011610104,-2.3175452945281063,0
1.138,1535,3594968,2010,0,1,-18.3225950224653,-1.141294391617488,0
1.14,1536,3596968,2036,0,1,-14.020191542098354,0.0880272276143872,0
1.142,1537,3598968,2030,0,1,-9.169519042570723,1.327442431112301,0
1.144,1538,3600968,2038,0,1,-4.627769792675239,2.529374017430139,0
1.146,1539,3602968,2041,1,1,-1.0810951795056614,3.649621769231068,0
1.148,1540,3604968,2037,1,1,0.9231969837487739,4.651623323397054,0
1.15,1541,3606968,2070,0,1,1.0158637800686865,5.510667679169178,0
1.152,1542,3608968,2043,0,1,-0.6974741524026662,6.220834898975102,0
1.154,1543,3610968,2027,0,1,-3.399782915119504,6.797889131998908,0
1.156,1544,3612968,2031,0,1,-5.876360259541972,7.268766154933131,0
1.158,1545,3614968,2019,0,1,-7.081512556547077,7.654822929772765,0
1.16,1546,3616968,2026,0,1,-6.470055050095076,7.96037783411575,0
1.162,1547,3618968,2042,0,1,-4.061019341339516,8.168886977950528,0
1.164,1548,3620968,2037,0,1,-0.24598007025118562,8.247384885083262,0
1.166,1549,3622968,2021,1,1,4.3794390810881865,8.15368002978693,0
1.168,1550,3624968,2056,1,1,8.838065144543435,7.839309109807322,0
1.17,1551,3626968,2075,0,1,11.750829333223592,7.257040522692478,0
1.172,1552,3628968,2072,0,1,11.982315157761791,6.381206926880995,0
1.174,1553,3630968,2057,0,1,9.364520489857664,5.227089870022787,0
1.176,1554,3632968,2037,0,1,4.739599513009674,3.852629909992068,0
1.178,1555,3634968,2035,0,1,-0.5871814880922237,2.34392048553671,0
1.18,1556,3636968,2029,0,1,-5.415063640667576,0.7969250076518248,0
1.182,1557,3638968,2027,0,1,-8.90164180717736,-0.6959689171668391,0
1.184,1558,3640968,2014,0,1,-10.636022720972683,-2.0552206108554634,0
1.186,1559,3642968,2029,1,1,-10.739418374822003,-3.221908067773853,0
1.188,1560,3644968,2027,1,1,-9.888289707502244,-4.161227867564076,0
1.19,1561,3646968,2054,0,1,-9.053880896700722,-4.857811346092397,0
1.192,1562,3648968,2043,0,1,-8.974836995322665,-5.304194209403444,0
1.194,1563,3650968,2029,0,1,-9.725596912081041,-5.49102967361128,0
1.196,1564,3652968,2027,0,1,-10.795244143264668,-5.408303786142099,0
1.198,1565,3654968,2022,0,1,-11.532789413668285,-5.054860378981759,0
1.2,1566,3656968,2037,0,1,-11.454675979796773,-4.445592881329219,0
1.202,1567,3658968,2027,0,1,-10.229715050293509,-3.611696563617006,0
1.204,1568,3660968,2026,0,1,-7.5916076563043555,-2.598160483944034,0
1.206,1569,3662968,2018,1,1,-3.504634249373531,-1.4644099795382708,0
1.208,1570,3664968,2028,1,1,1.440399458524226,-0.28730737213566204,0
1.21,1571,3666968,2077,0,1,5.892100626502472,0.8430920283720615,0
1.212,1572,3668968,2065,0,1,8.338409361044132,1.8432572397396798,0
1.214,1573,3670968,2057,0,1,7.988611223284179,2.6603654548785465,0
1.216,1574,3672968,2057,0,1,5.064329213683077,3.281499464557203,0
1.218,1575,3674968,2039,0,1,0.542311069444958,3.727482902531861,0
1.22,1576,3676968,2039,0,1,-4.177414502612088,4.041032416429178,0
1.222,1577,3678968,2019,0,1,-7.599777513390288,4.27239208148297,0
1.224,1578,3680968,2017,0,1,-8.528170638234116,4.463402734048804,0
1.226,1579,3682968,2019,1,1,-6.488575946365823,4.63311562582707,0
1.228,1580,3684968,2015,1,1,-2.0547197457388595,4.769422573708677,0
1.23,1581,3686968,2071,0,1,3.139410718567744,4.831652365565475,0
1.232,1582,3688968,2072,0,1,7.029582842235541,4.769666587419351,0
1.234,1583,3690968,2063,0,1,8.172745386067547,4.55251674158308,0
1.236,1584,3692968,2067,0,1,6.350687753325111,4.186366787145092,0
1.238,1585,3694968,2029,0,1,2.4359608860708004,3.7136757556145654,0
1.24,1586,3696968,2031,0,1,-2.19251498236177,3.1988669043824647,0
1.242,1587,3698968,2035,0,1,-6.316473743367711,2.7090294410656934,0
1.244,1588,3700968,2027,0,1,-9.158384980287206,2.301011469380738,0
1.246,1589,3702968,2014,1,1,-10.358349022034256,2.0152290949512635,0
1.248,1590,3704968,2022,1,1,-10.110686518928985,1.868450952344396,0
1.25,1591,3706968,2056,0,1,-9.243560359221355,1.8504614849823557,0
1.252,1592,3708968,2044,0,1,-8.74060052606611,1.9341921235804467,0
1.254,1593,3710968,2041,0,1,-9.049753849862531,2.0913557451674514,0
1.256,1594,3712968,2029,0,1,-9.901909954159846,2.2979677833954164,0
1.258,1595,3714968,2025,0,1,-10.650984262714564,2.5288366067777304,0
1.26,1596,3716968,2027,0,1,-10.702289432200821,2.7498988611340724,0
1.262,1597,3718968,2037,0,1,-9.727671525846413,2.9152600283912933,0
1.264,1598,3720968,2024,0,1,-7.6350902758709465,2.970414329313212,0
1.266,1599,3722968,2013,1,1,-4.635951958942276,2.8553312462174834,0
1.268,1600,3724968,2054,1,1,-1.5363774569870134,2.504961275466983,0
1.27,1601,3726968,2065,0,1,0.37441107580265687,1.8589466600463391,0
1.272,1602,3728968,2056,0,1,0.09595430052806542,0.8841665631381703,0
1.274,1603,3730968,2039,0,1,-2.484782828442679,-0.40832014804793815,0
1.276,1604,3732968,2039,0,1,-6.7250025870953785,-1.9644958912963233,0
1.278,1605,3734968,2019,0,1,-11.692532698962882,-3.699286248117872,0
1.28,1606,3736968,2015,0,1,-16.593854011078477,-5.510852176626775,0
1.282,1607,3738968,2027,0,1,-21.065814526564356,-7.293861234877156,0
1.284,1608,3740968,2022,0,1,-25.123477897420052,-8.946359603292711,0
1.286,1609,3742968,2021,1,1,-28.806801421425806,-10.370393451800684,0
1.288,1610,3744968,2015,1,1,-31.898595002122896,-11.473544824777566,0
1.29,1611,3746968,2005,0,1,-33.89240225290871,-12.174806770585713,0
1.292,1612,3748968,1998,0,1,-34.1932009651438,-12.414020813099242,0
1.294,1613,3750968,1997,0,1,-32.484710481742205,-12.162727224380365,0
1.296,1614,3752968,2023,0,1,-28.99817588732579,-11.430303817024448,0
1.298,1615,3754968,2018,0,1,-24.391347469061234,-10.259249022427186,0
1.3,1616,3756968,2025,0,1,-19.408678363630564,-8.713401523519755,0
1.302,1617,3758968,2037,0,1,-14.689266112609705,-6.867406443032062,0
1.304,1618,3760968,2043,0,1,-10.649496175935244,-4.797302318394745,0
1.306,1619,3762968,2021,1,1,-7.379074965682504,-2.572166411593635,0
1.308,1620,3764968,2031,1,1,-4.852259543039726,-0.25347474831270933,0
1.31,1621,3766968,2045,0,1,-3.319632492017373,2.1002596520169092,0
1.312,1622,3768968,2059,0,1,-3.2687172104192133,4.435582004768005,0
1.314,1623,3770968,2057,0,1,-4.86482874746382,6.714356956896356,0
1.316,1624,3772968,2029,0,1,-7.4816759580349,8.919679222843302,0
1.318,1625,3774968,2027,0,1,-9.857970415796737,11.046909155917042,0
1.32,1626,3776968,2037,0,1,-10.643024497802653,13.085689324624036,0
1.322,1627,3778968,2029,0,1,-8.691196367033292,15.00764421732283,0
1.324,1628,3780968,2029,0,1,-3.0984259837954635,16.762143044372564,0
1.326,1629,3782968,2005,1,1,6.485488138141012,18.271502636394917,0
1.328,1630,3784968,2021,1,1,19.05119167982971,19.42269467029263,0
1.33,1631,3786968,2107,0,1,31.634394044374616,20.069687480035014,0
1.332,1632,3788968,2137,0,1,40.15789213185229,20.06859655133396,0
1.334,1633,3790968,2130,0,1,41.53482962499852,19.33731563278397,0
1.336,1634,3792968,2095,0,1,35.20519996536078,17.897322986034997,0
1.338,1635,3794968,2069,0,1,23.059736573625404,15.87230111916221,0
1.34,1636,3796968,2053,0,1,8.419850953811252,13.455818885284906,0
1.342,1637,3798968,2008,0,1,-5.010262435091802,10.869133381581825,0
1.344,1638,3800968,2005,0,1,-14.069586795587362,8.317521163863262,0
1.346,1639,3802968,1996,1,1,-16.96902967155074,5.950776252421825,0
1.348,1640,3804968,1997,1,1,-13.802836205762489,3.837443908086753,0
1.35,1641,3806968,2055,0,1,-6.557702643625801,1.9594787145245696,0
1.352,1642,3808968,2069,0,1,1.6416510751186486,0.23245359428361145,0
1.354,1643,3810968,2079,0,1,7.875589771666883,-1.455169337828845,0
1.356,1644,3812968,2076,0,1,10.474671304516438,-3.2060026679589484,0
1.358,1645,3814968,2055,0,1,9.262140568013656,-5.095524542906481,0
1.36,1646,3816968,2055,0,1,5.1910942433319605,-7.170644618003159,0
1.362,1647,3818968,2037,0,1,-0.22175320847352786,-9.457646450838197,0
1.364,1648,3820968,2031,0,1,-5.378071333596814,-11.972543534647583,0
1.366,1649,3822968,2020,1,1,-8.991276185626157,-14.731496358505485,0
1.368,1650,3824968,2013,1,1,-10.46197472675904,-17.760236105336027,0
1.37,1651,3826968,2035,0,1,-10.138679965175882,-21.098625339159803,0
1.372,1652,3828968,2055,0,1,-9.142222063891507,-24.79317292817588,0
1.374,1653,3830968,2044,0,1,-8.673246882125273,-28.876554512290397,0
1.376,1654,3832968,2045,0,1,-9.376757654039372,-33.34724867357829,0
1.378,1655,3834968,2028,0,1,-11.251768853875646,-38.16090614830506,0
1.38,1656,3836968,2037,0,1,-13.924037470170163,-43.23115400628305,0
1.382,1657,3838968,2029,0,1,-16.875214315414965,-48.432174796677636,0
1.384,1658,3840968,2024,0,1,-19.498817788448378,-53.6002665324121,0
1.386,1659,3842968,2003,1,1,-21.224014479292215,-58.53862363710009,0
1.388,1660,3844968,2019,1,1,-21.868751752001177,-63.027876891701965,0
1.39,1661,3846968,2037,0,1,-21.832963056111197,-66.83419321940768,0
1.392,1662,3848968,2034,0,1,-21.728411132865666,-69.70703489167022,0
1.394,1663,3850968,2031,0,1,-21.7971836033624,-71.37431168329867,0
1.396,1664,3852968,2023,0,1,-21.70477917872857,-71.54750992618827,0
1.398,1665,3854968,2011,0,1,-20.783454456524854,-69.93875586777172,0
1.4,1666,3856968,2023,0,1,-18.477979215697918,-66.28444197820087,0
1.402,1667,3858968,2027,0,1,-14.660051840864712,-60.36772677121027,0
1.404,1668,3860968,2038,0,1,-9.611754774340168,-52.034881615566064,0
1.406,1669,3862968,2021,1,1,-3.9090153546661774,-41.2093716706925,0
1.408,1670,3864968,2040,1,1,1.4549650381560255,-27.91011396773331,0
1.41,1671,3866968,2093,0,1,5.045527383326217,-12.267294468431324,0
1.412,1672,3868968,2103,0,1,5.842640306885812,5.479090455839959,0
1.414,1673,3870968,2101,0,1,4.753226351881331,24.992650740667848,0
1.416,1674,3872968,2072,0,1,5.557970652824711,45.8418830703565,0
1.418,1675,3874968,2054,0,1,14.590093357073208,67.47828680221437,0
1.42,1676,3876968,2029,0,1,39.28582706924271,89.20092473749649,0
1.422,1677,3878968,2019,0,1,85.86821359813841,110.12283723091248,0
1.424,1678,3880968,2012,0,1,156.21218921608153,129.15149507293188,0
1.426,1679,3882968,2073,1,1,244.0972011526744,144.99588908348113,0
1.428,1680,3884968,2386,1,1,332.7105105625575,156.23783712072535,0
1.43,1681,3886968,2741,0,1,397.5795106866501,161.53732699792084,0
1.432,1682,3888968,2796,0,1,416.60302122953766,159.976061479314,1
1.434,1683,3890968,2633,0,1,381.1662768680131,151.38149870685734,0
1.436,1684,3892968,2373,0,1,300.00790835038316,136.4328041887642,0
1.438,1685,3894968,2133,0,1,194.2369834189713,116.50372434334676,0
1.44,1686,3896968,1973,0,1,88.24557418093951,93.34965690721184,0
1.442,1687,3898968,1902,0,1,1.7738617218318122,68.77642597666438,0
1.444,1688,3900968,1883,0,1,-54.22061017589269,44.38302124962782,0
1.446,1689,3902968,1897,1,1,-77.9970279635586,21.409532883680704,0
1.448,1690,3904968,1964,1,1,-75.21704687233257,0.6813717648738447,0
1.45,1691,3906968,2041,0,1,-55.96665386656587,-17.367012420274975,0
1.452,1692,3908968,2088,0,1,-31.219774438095005,-32.60877799178438,0
1.454,1693,3910968,2108,0,1,-9.695682919358685,-45.116222867965895,0
1.456,1694,3912968,2100,0,1,3.903233801114469,-55.064669188830806,0
1.458,1695,3914968,2067,0,1,9.002432773850334,-62.66930164910792,0
1.46,1696,3916968,2045,0,1,7.976599320621516,-68.15724196169029,0
1.462,1697,3918968,2027,0,1,4.405562759630139,-71.76363991129682,0
1.464,1698,3920968,2022,0,1,1.5424829599967058,-73.73471600470863,0
1.466,1699,3922968,2005,1,1,1.3052517830296093,-74.32759877099325,0
1.468,1700,3924968,2039,1,1,3.725905370841753,-73.80426451964773,0
1.47,1701,3926968,2079,0,1,7.110254880685543,-72.41238526752377,0
1.472,1702,3928968,2079,0,1,9.148852422456281,-70.3487268129904,0
1.474,1703,3930968,2079,0,1,8.271970170572908,-67.72170637123094,0
1.476,1704,3932968,2055,0,1,4.2831060869018724,-64.53551204715481,0
1.478,1705,3934968,2036,0,1,-1.8846740432841376,-60.70101288441506,0
1.48,1706,3936968,2037,0,1,-8.850706232589879,-56.06473591973102,0
1.482,1707,3938968,2013,0,1,-15.39100158420323,-50.443741236445824,0
1.484,1708,3940968,2024,0,1,-20.773392115218314,-43.65970252589673,0
1.486,1709,3942968,2019,1,1,-24.855882073467722,-35.56995339594627,0
1.488,1710,3944968,2029,1,1,-27.90151463021372,-26.092335106192863,0
1.49,1711,3946968,2025,0,1,-30.193262554747026,-15.224027498138856,0
1.492,1712,3948968,2035,0,1,-31.638155751200514,-3.057174311200974,0
1.494,1713,3950968,2035,0,1,-31.413513261696675,10.208516389909114,0
1.496,1714,3952968,2025,0,1,-27.730949843079337,24.256066120768004,0
1.498,1715,3954968,2029,0,1,-17.935004487601113,38.64246187293856,0
1.5,1716,3956968,2035,0,1,1.0162004204779276,52.793361445744985,0
1.502,1717,3958968,2031,0,1,31.781990746896483,66.00742394090877,0
1.504,1718,3960968,2038,0,1,75.40461102135602,77.47113434245077,0
1.506,1719,3962968,2029,1,1,129.3304695044916,86.28180052969192,0
1.508,1720,3964968,2195,1,1,185.32095010648266,91.4912113680616,0
1.51,1721,3966968,2419,0,1,229.8037329374567,92.21396904175623,0
1.512,1722,3968968,2492,0,1,248.75925256515046,87.8265680301084,0
1.514,1723,3970968,2414,0,1,234.52206786078023,78.18292403980873,0
1.516,1724,3972968,2265,0,1,189.14936778449677,63.71844860193422,0
1.518,1725,3974968,2121,0,1,122.41932635328673,45.392010253196396,0
1.52,1726,3976968,2019,0,1,46.92887330855385,24.517274313584355,0
1.522,1727,3978968,1958,0,1,-26.337588954774205,2.5654286883651203,0
1.524,1728,3980968,1930,0,1,-90.15506249549243,-19.00406334769658,0
1.526,1729,3982968,1943,1,1,-140.74804179231728,-38.862168408370394,0
1.528,1730,3984968,1902,1,1,-175.8335023115303,-55.88082869351672,0
1.53,1731,3986968,1787,0,1,-192.93567613084014,-69.184961860789,0
1.532,1732,3988968,1781,0,1,-190.01911752194297,-78.22081199681922,0
1.534,1733,3990968,1824,0,1,-167.8347251857419,-82.82410492206702,0
1.536,1734,3992968,1913,0,1,-131.21272033468372,-83.23071759404311,0
1.538,1735,3994968,1995,0,1,-88.01543770209969,-80.0066019379843,0
1.54,1736,3996968,2065,0,1,-46.67929838285783,-73.9240424399843,0
1.542,1737,3998968,2088,0,1,-13.768728317456958,-65.82611550711164,0
1.544,1738,4000968,2093,0,1,7.439028281044452,-56.514346035359566,0
1.546,1739,4002968,2069,1,1,16.97425769601163,-46.67870680952731,0
1.548,1740,4004968,2063,1,1,17.14632350175838,-36.869777461620856,0
1.55,1741,4006968,2045,0,1,11.221901474003861,-27.499253591518432,0
1.552,1742,4008968,2039,0,1,2.420684931103641,-18.85373670261309,0
1.554,1743,4010968,2028,0,1,-6.628279710094407,-11.113853962561791,0
1.556,1744,4012968,2024,0,1,-14.094944715257096,-4.375624578144691,0
1.558,1745,4014968,2028,0,1,-18.93130604467225,1.328713074610505,0
1.56,1746,4016968,2021,0,1,-20.69689176530141,6.012945402444473,0
1.562,1747,4018968,2021,0,1,-19.38984100964157,9.721659096493912,0
1.564,1748,4020968,2029,0,1,-15.422934410862895,12.516416290761313,0
1.566,1749,4022968,2027,1,1,-9.667763201186085,14.465551356105827,0
1.568,1750,4024968,2040,1,1,-3.4885870736015665,15.638988914157906,0
1.57,1751,4026968,2077,0,1,1.387449871426785,16.11003503093133,0
1.572,1752,4028968,2071,0,1,3.444672796223693,15.967652047270334,0
1.574,1753,4030968,2070,0,1,2.1401730960152534,15.33152105904194,0
1.576,1754,4032968,2044,0,1,-1.8181809735896692,14.35440004558024,0
1.578,1755,4034968,2040,0,1,-6.834718555038263,13.207798840399201,0
1.58,1756,4036968,2027,0,1,-11.040996069329623,12.059629362518704,0
1.582,1757,4038968,2021,0,1,-12.820827238541854,11.05295467224854,0
1.584,1758,4040968,2013,0,1,-11.233325850308102,10.288914203775498,0
1.586,1759,4042968,2008,1,1,-6.470210725084684,9.81359025139456,0
1.588,1760,4044968,2065,1,1,-0.15016084574839006,9.61403100225769,0
1.59,1761,4046968,2085,0,1,5.1795488570992525,9.635314204642329,0
1.592,1762,4048968,2085,0,1,7.36032387201629,9.816496045924088,0
1.594,1763,4050968,2072,0,1,5.7240728319190595,10.121117654476462,0
1.596,1764,4052968,2053,0,1,1.249827645381803,10.544529343782578,0
1.598,1765,4054968,2035,0,1,-3.9991391632805033,11.10134287642519,0
1.6,1766,4056968,2025,0,1,-7.695332971340861,11.803568576207255,0
1.602,1767,4058968,2019,0,1,-8.00763031223747,12.638856780073137,0
1.604,1768,4060968,2023,0,1,-4.14561293889001,13.55554645288615,0
1.606,1769,4062968,2019,1,1,3.2866126716689275,14.456861623901926,0
1.608,1770,4064968,2075,1,1,12.185749572380235,15.206597127083933,0
1.61,1771,4066968,2103,0,1,19.532572768407153,15.653852289805174,0
1.612,1772,4068968,2105,0,1,22.741948037498666,15.67495988514224,0
1.614,1773,4070968,2089,0,1,20.856923057646668,15.20974190633251,0
1.616,1774,4072968,2069,0,1,14.774201088203919,14.272069210815935,0
1.618,1775,4074968,2044,0,1,6.6480915307543365,12.936052925773456,0
1.62,1776,4076968,2035,0,1,-1.0043759060461905,11.309495440507884,0
1.622,1777,4078968,2015,0,1,-6.125682452352782,9.505285380822293,0
1.624,1778,4080968,2023,0,1,-7.720212005748174,7.617631975389665,0
1.626,1779,4082968,2027,1,1,-6.159792669150297,5.7079582141867355,0
1.628,1780,4084968,2058,1,1,-3.0385654235719937,3.805108157327651,0
1.63,1781,4086968,2071,0,1,-0.4936462926587062,1.9209863918153456,0
1.632,1782,4088968,2075,0,1,-0.2216844691782125,0.07466652809058161,0
1.634,1783,4090968,2055,0,1,-2.740472958028235,-1.689115442053028,0
1.636,1784,4092968,2039,0,1,-7.339334384916034,-3.2984336217706147,0
1.638,1785,4094968,2026,0,1,-12.637210734680064,-4.668851719531338,0
1.64,1786,4096968,2035,0,1,-17.227590188632078,-5.723011526848602,0
1.642,1787,4098968,2019,0,1,-19.978810264630567,-6.4045137389097455,0
1.644,1788,4100968,2021,0,1,-20.09727047954423,-6.685962438001827,0
1.646,1789,4102968,2007,1,1,-17.308470397955844,-6.576313895294817,0
1.648,1790,4104968,2019,1,1,-12.220330679064515,-6.127530192962168,0
1.65,1791,4106968,2069,0,1,-6.4554556017342986,-5.43202480270502,0
1.652,1792,4108968,2075,0,1,-1.9929515379532905,-4.60094587845406,0
1.654,1793,4110968,2056,0,1,-0.06616443191279231,-3.7326629535672744,0
1.656,1794,4112968,2056,0,1,-0.6946733672160876,-2.8956910571356964,0
1.658,1795,4114968,2053,0,1,-2.9879374942496364,-2.1307191203812748,0
1.66,1796,4116968,2037,0,1,-5.548334985674489,-1.4586658719164571,0
1.662,1797,4118968,2024,0,1,-6.853581021327362,-0.891038101400063,0
1.664,1798,4120968,2031,0,1,-5.787431047507507,-0.44372254372141273,0
1.666,1799,4122968,2005,1,1,-2.193304486050195,-0.14939949937886454,0
1.668,1800,4124968,2063,1,1,2.751571560012786,-0.06288242523211651,0
1.67,1801,4126968,2083,0,1,6.808265840890113,-0.2500194788724328,0
1.672,1802,4128968,2090,0,1,7.840189147550204,-0.7572084174222737,0
1.674,1803,4130968,2074,0,1,5.0308894185846444,-1.5814169886930824,0
1.676,1804,4132968,2043,0,1,-0.798563692014084,-2.6626941174083396,0
1.678,1805,4134968,2035,0,1,-7.782691409737129,-3.9006114939367467,0
1.68,1806,4136968,2022,0,1,-13.89733740959499,-5.181206567756294,0
1.682,1807,4138968,2023,0,1,-17.575460571207405,-6.4004351669620405,0
1.684,1808,4140968,2019,0,1,-17.956744164547725,-7.479022363655798,0
1.686,1809,4142968,1997,1,1,-15.063917685164505,-8.371945433596064,0
1.688,1810,4144968,2053,1,1,-10.044669047811952,-9.073902015247134,0
1.69,1811,4146968,2060,0,1,-4.965560176635616,-9.61078326622229,0
1.692,1812,4148968,2072,0,1,-1.882428381312108,-10.013626680089242,0
1.694,1813,4150968,2067,0,1,-1.9028847671167206,-10.292358237274033,0
1.696,1814,4152968,2056,0,1,-4.826167867073625,-10.424079988942145,0
1.698,1815,4154968,2029,0,1,-9.340922824928,-10.357335277520042,0
1.7,1816,4156968,2030,0,1,-13.637225557789977,-10.029262644062113,0
1.702,1817,4158968,2023,0,1,-16.072233886138072,-9.38653763152642,0
1.704,1818,4160968,2020,0,1,-15.555081767911709,-8.400713972782025,0
1.706,1819,4162968,2007,1,1,-11.807190017365874,-7.0784111416115145,0
1.708,1820,4164968,2029,1,1,-5.718013610414792,-5.468896061171444,0
1.71,1821,4166968,2079,0,1,0.616501511107427,-3.660503525199622,0
1.712,1822,4168968,2090,0,1,4.771009086519736,-1.755544329895832,0
1.714,1823,4170968,2079,0,1,5.359601738640839,0.1647816796475743,0
1.716,1824,4172968,2065,0,1,2.7695199383106344,2.059695626397173,0
1.718,1825,4174968,2037,0,1,-1.12618591694127,3.922717931720598,0
1.72,1826,4176968,2035,0,1,-3.8335176080074627,5.759457239923538,0
1.722,1827,4178968,2018,0,1,-3.1639851765544034,7.562379774314804,0
1.724,1828,4180968,2023,0,1,2.017049162585916,9.291158167769202,0
1.726,1829,4182968,2022,1,1,11.204853790369908,10.861689545172391,0
1.728,1830,4184968,2075,1,1,21.97368210479971,12.148246179929284,0
1.73,1831,4186968,2127,0,1,30.554316466274194,13.008732441681444,0
1.732,1832,4188968,2135,0,1,33.49430499882042,13.333519383773677,0
1.734,1833,4190968,2117,0,1,29.45586309403449,13.093398846763908,0
1.736,1834,4192968,2069,0,1,19.85895127309088,12.355943713245829,0
1.738,1835,4194968,2035,0,1,8.054406065459746,11.262041904521393,0
1.74,1836,4196968,2026,0,1,-2.2399656476386216,9.979249817954576,0
1.742,1837,4198968,2019,0,1,-8.210582340796323,8.657480086550464,0
1.744,1838,4200968,2011,0,1,-8.525727455064338,7.400823618295642,0
1.746,1839,4202968,2003,1,1,-3.6288080614832436,6.252039399780149,0
1.748,1840,4204968,2072,1,1,4.104656331931816,5.188996329577543,0
1.75,1841,4206968,2101,0,1,11.047964241677619,4.14612706097949,0
1.752,1842,4208968,2105,0,1,14.008275438955277,3.0603983808829804,0
1.754,1843,4210968,2084,0,1,11.709713439916968,1.9124708124685261,0
1.756,1844,4212968,2065,0,1,5.091471043397685,0.7387302512378371,0
1.758,1845,4214968,2032,0,1,-3.365047217775043,-0.3837155329486963,0
1.76,1846,4216968,2024,0,1,-10.686826938166767,-1.3660681663573992,0
1.762,1847,4218968,2009,0,1,-14.394252664349484,-2.138384175468773,0
1.764,1848,4220968,2009,0,1,-13.197326446261329,-2.6726504246976175,0
1.766,1849,4222968,2012,1,1,-7.435804023047249,-2.99518143486181,0
1.768,1850,4224968,2056,1,1,0.8075457929257803,-3.184981104011882,0
1.77,1851,4226968,2095,0,1,8.317697989955132,-3.3509102561594934,0
1.772,1852,4228968,2099,0,1,12.141938896524284,-3.589855986529394,0
1.774,1853,4230968,2085,0,1,10.93443314567119,-3.9473547751075886,0
1.776,1854,4232968,2063,0,1,5.365049349956202,-4.40271651541219,0
1.778,1855,4234968,2030,0,1,-2.448605530706672,-4.881628248494052,0
1.78,1856,4236968,2027,0,1,-9.982475395724684,-5.285347354013483,0
1.782,1857,4238968,2020,0,1,-15.218302028442572,-5.521327864679913,0
1.784,1858,4240968,2024,0,1,-17.046009391092138,-5.523771717493194,0
1.786,1859,4242968,2005,1,1,-15.340397585803435,-5.264401431236989,0
1.788,1860,4244968,2040,1,1,-11.04449209307395,-4.758055929391098,0
1.79,1861,4246968,2060,0,1,-6.013455268101269,-4.057961526807629,0
1.792,1862,4248968,2077,0,1,-2.2479402563933437,-3.234796502058356,0
1.794,1863,4250968,2065,0,1,-0.9145139840969527,-2.3501684572716517,0
1.796,1864,4252968,2055,0,1,-1.8876998959780877,-1.4419816216777355,0
1.798,1865,4254968,2040,0,1,-4.00425291900418,-0.5272611658625577,0
1.8,1866,4256968,2039,0,1,-5.677216662549933,0.38462370288823755,0
1.802,1867,4258968,2029,0,1,-5.470562702567685,1.277918462453353,0
1.804,1868,4260968,2030,0,1,-2.5277204281887986,2.1201258465579227,0
1.806,1869,4262968,2013,1,1,2.9972116661325106,2.8545869745475505,0
1.808,1870,4264968,2071,1,1,9.567504900493475,3.3984679082591867,0
1.81,1871,4266968,2100,0,1,14.598358375383015,3.6584802349113206,0
1.812,1872,4268968,2099,0,1,15.768569095963054,3.5671425880439855,0
1.814,1873,4270968,2085,0,1,12.318741410845405,3.116120292222895,0
1.816,1874,4272968,2054,0,1,5.341061497769356,2.3635391236700007,0
1.818,1875,4274968,2032,0,1,-2.886230939486694,1.4151494677209633,0
1.82,1876,4276968,2029,0,1,-9.916318112874903,0.3929240760728401,0
1.822,1877,4278968,2019,0,1,-13.904300409180049,-0.5935343625284327,0
1.824,1878,4280968,2015,0,1,-13.973060973177706,-1.46576467437994,0
1.826,1879,4282968,2007,1,1,-10.476250539436169,-2.1883195833375515,0
1.828,1880,4284968,2065,1,1,-5.14656782618345,-2.7720659793192315,0
1.83,1881,4286968,2078,0,1,-0.5448727857480273,-3.2580098014179333,0
1.832,1882,4288968,2078,0,1,1.2006251112730708,-3.6841553001882663,0
1.834,1883,4290968,2073,0,1,-0.5918647595313855,-4.058151638372236,0
1.836,1884,4292968,2040,0,1,-5.007827335677266,-4.351173855789622,0
1.838,1885,4294968,2029,0,1,-10.117985784519304,-4.511565309141799,0
1.84,1886,4296968,2025,0,1,-13.868988521492403,-4.488582152530137,0
1.842,1887,4298968,2021,0,1,-14.757506284193258,-4.252965527915437,0
1.844,1888,4300968,2022,0,1,-12.129147677046793,-3.8080552891027404,0
1.846,1889,4302968,2012,1,1,-6.384539217907855,-3.1946481788235417,0
1.848,1890,4304968,2057,1,1,0.8286315053944531,-2.490161672853496,0
1.85,1891,4306968,2091,0,1,6.9450242154256845,-1.792868108572636,0
1.852,1892,4308968,2089,0,1,9.622952839598316,-1.1881675339102753,0
1.854,1893,4310968,2077,0,1,7.9024388797905125,-0.7165147826784006,0
1.856,1894,4312968,2065,0,1,2.5201015825351347,-0.36350411024930684,0
1.858,1895,4314968,2031,0,1,-4.537510680291168,-0.07200152920205571,0
1.86,1896,4316968,2031,0,1,-10.830750543995643,0.23294755459387595,0
1.862,1897,4318968,2013,0,1,-14.272781082636234,0.6163275592109618,0
1.864,1898,4320968,2024,0,1,-13.669830142406369,1.1117881442721038,0
1.866,1899,4322968,2007,1,1,-9.022111587029451,1.7095644022902503,0
1.868,1900,4324968,2040,1,1,-1.7323155665462817,2.352759557181336,0
1.87,1901,4326968,2088,0,1,5.5794608633758775,2.9479174870247618,0
1.872,1902,4328968,2095,0,1,10.111866966233741,3.3966252220850985,0
1.874,1903,4330968,2095,0,1,10.299018462112574,3.6348009056355517,0
1.876,1904,4332968,2059,0,1,6.532196178108592,3.654189763905861,0
1.878,1905,4334968,2037,0,1,0.7596035699471795,3.4952066345692048,0
1.88,1906,4336968,2040,0,1,-4.562759235329179,3.2209438662216643,0
1.882,1907,4338968,2019,0,1,-7.374537294341966,2.890899359613355,0
1.884,1908,4340968,2024,0,1,-6.515304103861843,2.5431968806548513,0
1.886,1909,4342968,2011,1,1,-2.122856461730928,2.1827616904292793,0
1.888,1910,4344968,2059,1,1,4.090280581456945,1.7775439327011031,0
1.89,1911,4346968,2106,0,1,9.282904871002014,1.274280226636012,0
1.892,1912,4348968,2091,0,1,10.906163989860463,0.6359947569698795,0
1.894,1913,4350968,2075,0,1,8.059248734635192,-0.12359606983188365,0
1.896,1914,4352968,2056,0,1,1.6821328578388606,-0.9342556450078856,0
1.898,1915,4354968,2029,0,1,-6.171178445608929,-1.688624160264537,0
1.9,1916,4356968,2028,0,1,-13.247734534091201,-2.271014592099099,0
1.902,1917,4358968,2024,0,1,-17.758445515158428,-2.583674400477609,0
1.904,1918,4360968,2019,0,1,-18.62723321226133,-2.563715485999733,0
1.906,1919,4362968,1997,1,1,-15.642262212596389,-2.1939646674709525,0
1.908,1920,4364968,2037,1,1,-9.798992661719021,-1.5116020484449368,0
1.91,1921,4366968,2073,0,1,-3.2870981808029187,-0.6034647383047871,0
1.912,1922,4368968,2083,0,1,1.4610907984855164,0.42184125828951663,0
1.914,1923,4370968,2075,0,1,3.038344905788936,1.4694185215028406,0
1.916,1924,4372968,2063,0,1,1.635579911084787,2.477530108191281,0
1.918,1925,4374968,2038,0,1,-1.2557490806870852,3.415320522532606,0
1.92,1926,4376968,2039,0,1,-3.612494948869111,4.266851169008641,0
1.922,1927,4378968,2024,0,1,-3.6736176989862575,5.012440572334834,0
1.924,1928,4380968,2031,0,1,-0.5189639082871769,5.615078242966891,0
1.926,1929,4382968,2019,1,1,5.502236852024957,6.01330078385346,0
1.928,1930,4384968,2074,1,1,12.538463713003546,6.122752986532039,0
1.93,1931,4386968,2107,0,1,17.720913319906863,5.8559955775308605,0
1.932,1932,4388968,2103,0,1,18.544069645730392,5.1610380416882276,0
1.934,1933,4390968,2088,0,1,14.179113333693408,4.055217413232561,0
1.936,1934,4392968,2056,0,1,5.748944900358368,2.631487924971087,0
1.938,1935,4394968,2031,0,1,-4.364485164070123,1.037239384357762,0
1.94,1936,4396968,2025,0,1,-13.56153600061548,-0.5603913675006345,0
1.942,1937,4398968,2010,0,1,-19.84226328305636,-2.0076357014414645,0
1.944,1938,4400968,2019,0,1,-22.192593263850352,-3.1873342775630196,0
1.946,1939,4402968,2011,1,1,-20.67371000449721,-4.031622597701687,0
1.948,1940,4404968,2025,0,1,-16.38815303850855,-4.525711253565455,0
1.95,1941,4406968,2065,0,1,-11.246226719736297,-4.7012546537021285,0
1.952,1942,4408968,2066,0,1,-7.249109322521911,-4.615450857623619,0
1.954,1943,4410968,2067,0,1,-5.532541004525373,-4.323661056112309,0
1.956,1944,4412968,2042,0,1,-5.925077920925302,-3.8635050898491707,0
1.958,1945,4414968,2037,0,1,-7.294948938683147,-3.2576853638117655,0
1.96,1946,4416968,2040,0,1,-8.241506619852434,-2.526717455369843,0
1.962,1947,4418968,2023,0,1,-7.619687152370949,-1.6999210481105376,0
1.964,1948,4420968,2027,0,1,-4.904032832317579,-0.8227245718989749,0
1.966,1949,4422968,2037,1,1,-0.5371991765465034,0.038576056758888755,0
1.968,1950,4424968,2068,0,1,4.034647202238907,0.8011689305352965,0
1.97,1951,4426968,2079,0,1,6.937217519162475,1.3842692879890657,0
1.972,1952,4428968,2079,0,1,6.7781227749733395,1.7341792827998124,0
1.974,1953,4430968,2075,0,1,3.3243336471089906,1.8418609331684348,0
1.976,1954,4432968,2039,0,1,-2.3824521900633187,1.7444544942827842,0
1.978,1955,4434968,2035,0,1,-8.507656015648513,1.5097862660427164,0
1.98,1956,4436968,2027,0,1,-13.183861349732535,1.2118560025902103,0
1.982,1957,4438968,2019,0,1,-15.064131586829804,0.9097802457241067,0
1.984,1958,4440968,2029,0,1,-13.57722377497641,0.6350071307240938,0
1.986,1959,4442968,2020,1,1,-9.047869969972052,0.385782818657459,0
1.988,1960,4444968,2041,0,1,-2.759376580244571,0.1282615394960691,0
1.99,1961,4446968,2083,0,1,3.2340583225408963,-0.1925300362075858,0
1.992,1962,4448968,2078,0,1,6.867549708735286,-0.6276874813419846,0
1.994,1963,4450968,2076,0,1,7.018117596216646,-1.196165337732521,0
1.996,1964,4452968,2060,0,1,3.8712910399583214,-1.871841357323221,0
1.998,1965,4454968,2043,0,1,-1.3890158067626652,-2.589550423008441,0
2.0,1966,4456968,2040,0,1,-7.167020643105632,-3.262022859936607,0
2.002,1967,4458968,2026,0,1,-11.978896551518385,-3.799231400025217,0
2.004,1968,4460968,2030,0,1,-14.773151033818968,-4.124831090710822,0
2.006,1969,4462968,2001,1,1,-15.179795714029396,-4.189839666166843,0
2.008,1970,4464968,2058,0,1,-13.729650838218527,-3.9825687730419297,0
2.01,1971,4466968,2041,0,1,-11.64330427887515,-3.526238925502384,0
2.012,1972,4468968,2063,0,1,-10.115173650376091,-2.863503855858684,0
2.014,1973,4470968,2055,0,1,-9.669351021553753,-2.0409467822322926,0
2.016,1974,4472968,2042,0,1,-9.924152763701082,-1.1019320637137204,0
2.018,1975,4474968,2031,0,1,-9.803266638508148,-0.08934678268762664,0
2.02,1976,4476968,2035,0,1,-8.093959194324471,0.9442869025803957,0
2.022,1977,4478968,2027,0,1,-3.995153323461513,1.9279043564457208,0
2.024,1978,4480968,2029,0,1,2.474714828164835,2.768489051152772,0
2.026,1979,4482968,2053,1,1,10.16368848866802,3.353321850542316,0
2.028,1980,4484968,2089,0,1,16.889708500032967,3.5639771022485913,0
2.03,1981,4486968,2103,0,1,20.274801607714522,3.3061824808483546,0
2.032,1982,4488968,2098,0,1,18.910291532982985,2.54413517590512,0
2.034,1983,4490968,2077,0,1,13.06499934811309,1.320016171592607,0
2.036,1984,4492968,2039,0,1,4.516218110516949,-0.25178130595806225,0
2.038,1985,4494968,2030,0,1,-4.3504341245938445,-2.0124114114463145,0
2.04,1986,4496968,2025,0,1,-11.558090703534917,-3.7934351721508683,0
2.042,1987,4498968,2019,0,1,-16.084903194728618,-5.44339635509688,0
2.044,1988,4500968,2039,0,1,-17.880282179751894,-6.841662024617207,0
2.046,1989,4502968,2028,1,1,-17.553104260090308,-7.901670400827794,0
2.048,1990,4504968,2042,0,1,-15.97533764241512,-8.568078149856255,0
2.05,1991,4506968,2039,0,1,-14.013243583379074,-8.812757737034953,0
2.052,1992,4508968,2045,0,1,-12.369834204452358,-8.630595298003335,0
2.054,1993,4510968,2059,0,1,-11.414887008971041,-8.033986424251218,0
2.056,1994,4512968,2040,0,1,-10.9681526997683,-7.046469567271208,0
2.058,1995,4514968,2039,0,1,-10.255433562699103,-5.700420301437762,0
2.06,1996,4516968,2035,0,1,-8.219776337662537,-4.042167851474861,0
2.062,1997,4518968,2029,0,1,-3.986281319955207,-2.139498252491292,0
2.064,1998,4520968,2036,1,1,2.7011793235933794,-0.08648213530890292,0
2.066,1999,4522968,2031,1,1,11.06660180491887,1.995486760739377,0
2.068,2000,4524968,2089,0,1,19.11102188202223,3.9645769910318966,0
2.07,2001,4526968,2111,0,1,24.163944288053948,5.682140238992046,0
2.072,2002,4528968,2115,0,1,24.22991680656609,7.05088635143272,0
2.074,2003,4530968,2087,0,1,19.172465288360737,8.04469453104366,0
2.076,2004,4532968,2059,0,1,10.839204339581581,8.7094820296117,0
2.078,2005,4534968,2039,0,1,2.234054144458938,9.137125926373812,0
2.08,2006,4536968,2024,0,1,-3.59557356505811,9.428575160284542,0
2.082,2007,4538968,2012,0,1,-4.495524324702876,9.660063479076342,0
2.084,2008,4540968,2031,1,1,0.1478425897222746,9.859567179408351,0
2.086,2009,4542968,2019,1,1,9.077419333800325,9.997512304795645,0
2.088,2010,4544968,2099,0,1,19.258286630013114,9.994800143297265,0
2.09,2011,4546968,2119,0,1,26.79259287381609,9.753945469753575,0
2.092,2012,4548968,2125,0,1,28.633476747748286,9.208042840039068,0
2.094,2013,4550968,2107,0,1,24.011165445811734,8.360112694494218,0
2.096,2014,4552968,2063,0,1,14.675653731999834,7.290462679041529,0
2.098,2015,4554968,2031,0,1,4.003716885929566,6.131752220041191,0
2.1,2016,4556968,2029,0,1,-4.4305096035366915,5.026235320384459,0
2.102,2017,4558968,2011,0,1,-8.008938785024068,4.086401210549669,0
2.104,2018,4560968,2006,1,1,-5.706290930479626,3.3693713309990736,0
2.106,2019,4562968,2023,1,1,1.4783193637640535,2.863116993741904,0
2.108,2020,4564968,2093,0,1,10.555270673340852,2.491218676608246,0
2.11,2021,4566968,2109,0,1,17.687029184685787,2.1471606163462376,0
2.112,2022,4568968,2110,0,1,20.01712142470345,1.7451678000923243,0
2.114,2023,4570968,2091,0,1,16.884049683308394,1.2560525173727015,0
2.116,2024,4572968,2057,0,1,9.821530405052563,0.7118080085595748,0
2.118,2025,4574968,2036,0,1,1.6637120614223928,0.184087532787105,0
2.12,2026,4576968,2027,0,1,-4.6475152243225715,-0.24936788795237064,0
2.122,2027,4578968,2021,0,1,-6.986855089338816,-0.5348306993446572,0
2.124,2028,4580968,2019,1,1,-4.540716614512046,-0.6614383777548682,0
2.126,2029,4582968,2024,1,1,1.915281326599311,-0.669574220934178,0
2.128,2030,4584968,2078,0,1,10.010041027732655,-0.64643610860012,0
2.13,2031,4586968,2106,0,1,16.528579677416694,-0.7005043368305719,0
2.132,2032,4588968,2103,0,1,18.878816089016816,-0.9194960140239088,0
2.134,2033,4590968,2093,0,1,16.28858917828625,-1.3361517834216734,0
2.136,2034,4592968,2056,0,1,9.978037789994787,-1.9207268212962205,0
2.138,2035,4594968,2042,0,1,2.4282810859972095,-2.599059316196602,0
2.14,2036,4596968,2029,0,1,-3.6885090400623826,-3.283246763194519,0
2.142,2037,4598968,2018,0,1,-6.3871601778372495,-3.900636696211607,0
2.144,2038,4600968,2028,1,1,-4.899717026413198,-4.413848748175105,0
2.146,2039,4602968,2020,1,1,0.056371758630173296,-4.830344671958547,0
2.148,2040,4604968,2076,0,1,6.324194405223305,-5.199276498594346,0
2.15,2041,4606968,2101,0,1,11.024654435084468,-5.589721597496391,0
2.152,2042,4608968,2091,0,1,11.935073267662279,-6.05387114856061,0
2.154,2043,4610968,2076,0,1,8.558948814782045,-6.598646355382648,0
2.156,2044,4612968,2043,0,1,2.101198472128441,-7.184572895311414,0
2.158,2045,4614968,2041,0,1,-5.346273512385553,-7.7466922784331755,0
2.16,2046,4616968,2024,0,1,-11.678625895174589,-8.221267693191383,0
2.162,2047,4618968,2025,0,1,-15.312462928747323,-8.567090447823318,0
2.164,2048,4620968,2020,1,1,-15.432965023805602,-8.778997409925115,0
2.166,2049,4622968,2005,1,1,-12.19857034713466,-8.895797421542829,0
2.168,2050,4624968,2057,0,1,-6.93512509431589,-9.001869847232337,0
2.17,2051,4626968,2071,0,1,-1.823813455061571,-9.21296061695838,0
2.172,2052,4628968,2077,0,1,1.1214944500717912,-9.644291608086819,0
2.174,2053,4630968,2069,0,1,1.0135490706774062,-10.379622135611474,0
2.176,2054,4632968,2055,0,1,-1.6588285778991185,-11.457205086776428,0
2.178,2055,4634968,2039,0,1,-5.3825940722267696,-12.872095589987168,0
2.18,2056,4636968,2028,0,1,-8.273467638203561,-14.588396252705216,0
2.182,2057,4638968,2022,0,1,-8.779403366440963,-16.554422139835037,0
2.184,2058,4640968,2029,1,1,-6.222417141189299,-18.71398137362577,0
2.186,2059,4642968,2023,1,1,-1.1000329487234581,-21.010127880460058,0
2.188,2060,4644968,2075,0,1,4.913186507949668,-23.379508913577393,0
2.19,2061,4646968,2087,0,1,9.551443029395804,-25.73283552367224,0
2.192,2062,4648968,2079,0,1,11.041720453639304,-27.926208453629073,0
2.194,2063,4650968,2069,0,1,8.832712544164607,-29.743854917106376,0
2.196,2064,4652968,2055,0,1,3.5139660596218123,-30.904189512305415,0
2.198,2065,4654968,2040,0,1,-3.6857225006731706,-31.08257785844769,0
2.2,2066,4656968,2035,0,1,-11.413502958404566,-29.94186416994417,0
2.202,2067,4658968,2019,0,1,-18.5690867422267,-27.165507514598723,0
2.204,2068,4660968,2019,1,1,-24.53651920537313,-22.49060797965676,0
2.206,2069,4662968,2020,1,1,-29.27538853574951,-15.738471846590425,0
2.208,2070,4664968,2037,0,1,-33.12711286953886,-6.838002009903395,0
2.21,2071,4666968,2031,0,1,-36.27389147847215,4.160471481658247,0
2.212,2072,4668968,2031,0,1,-38.14006866111599,17.075936797204367,0
2.214,2073,4670968,2031,0,1,-37.07572457014308,31.586331051863823,0
2.216,2074,4672968,2029,0,1,-30.346065626376777,47.218633352845245,0
2.218,2075,4674968,2021,0,1,-14.416518468418156,63.343085291229684,0
2.22,2076,4676968,2029,0,1,14.295521081919995,79.17293825114291,0
2.222,2077,4678968,2031,0,1,58.11915276954578,93.77350474575235,0
2.224,2078,4680968,2035,1,1,116.2421238648437,106.08460089180181,0
2.226,2079,4682968,2089,1,1,182.3011648290106,114.95986345559542,0
2.228,2080,4684968,2374,0,1,243.07197811972125,119.25149708879357,0
2.23,2081,4686968,2553,0,1,281.55046165316,117.99272024245795,0
2.232,2082,4688968,2535,0,1,284.5257909645961,110.65708330038791,0
2.234,2083,4690968,2397,0,1,249.10542542023146,97.35798811697106,0
2.236,2084,4692968,2207,0,1,183.27188266185914,78.8703838379799,0
2.238,2085,4694968,2063,0,1,101.17408441234039,56.48348913894358,0
2.24,2086,4696968,1976,0,1,17.06528126851432,31.77405218642457,0
2.242,2087,4698968,1941,0,1,-58.75771677516558,6.389233190719544,0
2.244,2088,4700968,1934,1,1,-120.78638181533941,-18.112602061742628,0
2.246,2089,4702968,1935,1,1,-166.55902558026628,-40.35755319834212,0
2.248,2090,4704968,1829,0,1,-194.2171371582412,-59.21396492094405,0
2.25,2091,4706968,1770,0,1,-201.79738852129316,-73.85417354441378,0
2.252,2092,4708968,1800,0,1,-188.97242657254907,-83.82997039383784,0
2.254,2093,4710968,1868,0,1,-158.9860803248177,-89.1142156039186,0
2.256,2094,4712968,1944,0,1,-118.58461721237069,-90.06556086572547,0
2.258,2095,4714968,2018,0,1,-76.20202125907899,-87.32758937685423,0
2.26,2096,4716968,2085,0,1,-39.62786639280245,-81.69866483302344,0
2.262,2097,4718968,2094,0,1,-13.949916090785198,-74.00313829347067,0
2.264,2098,4720968,2084,1,1,-0.4414566440531438,-64.9911437243475,0
2.266,2099,4722968,2025,1,1,3.0279756892431022,-55.28796316495537,0
2.268,2100,4724968,2029,0,1,0.23080252410601076,-45.39288560185645,0
2.27,2101,4726968,2031,0,1,-5.326157136413583,-35.70145135382191,0
2.272,2102,4728968,2029,0,1,-11.26480701762812,-26.52215971389986,0
2.274,2103,4730968,2031,0,1,-16.230668508997933,-18.0833901771432,0
2.276,2104,4732968,2029,0,1,-19.539297933207006,-10.540242004854129,0
2.278,2105,4734968,2026,0,1,-20.901240451787768,-3.984667728053367,0
2.28,2106,4736968,2029,0,1,-20.278999212761853,1.5421351129117866,0
2.282,2107,4738968,2037,0,1,-17.81534937944198,6.0376906041325284,0
2.284,2108,4740968,2021,1,1,-13.785349792380245,9.52839975612013,0
2.286,2109,4742968,2025,1,1,-8.757877255547328,12.058693617136964,0
2.288,2110,4744968,2063,0,1,-3.8631805528011434,13.681262632834638,0
2.29,2111,4746968,2065,0,1,-0.5705994049619312,14.459438755113858,0
2.292,2112,4748968,2069,0,1,0.04255636496449933,14.480525332906739,0
2.294,2113,4750968,2067,0,1,-2.1286101394389254,13.864981161455939,0
2.296,2114,4752968,2037,0,1,-6.120434823367428,12.76328221282088,0
2.298,2115,4754968,2026,0,1,-10.31502210169629,11.339777110691394,0
2.3,2116,4756968,2029,0,1,-13.175408721033591,9.748718893730858,0
2.302,2117,4758968,2024,0,1,-13.782990104599682,8.115069674043472,0
2.304,2118,4760968,2029,1,1,-11.9826856945656,6.526174853121336,0
2.306,2119,4762968,2024,1,1,-8.407291293642858,5.030291679853924,0
2.308,2120,4764968,2063,0,1,-4.435280926682677,3.6409766514138715,0
2.31,2121,4766968,2070,0,1,-1.7548862911724403,2.3525360401051794,0
2.312,2122,4768968,2065,0,1,-1.5540609054787042,1.1637863880204318,0
2.314,2123,4770968,2059,0,1,-3.9563676687015024,0.09515622343960306,0
2.316,2124,4772968,2038,0,1,-8.061121026385228,-0.8099198326981476,0
2.318,2125,4774968,2023,0,1,-12.434082237666217,-1.496643411855895,0
2.32,2126,4776968,2036,0,1,-15.73233350859132,-1.9160211709016024,0
2.322,2127,4778968,2019,0,1,-17.073246133505776,-2.0377350552786058,0
2.324,2128,4780968,2031,1,1,-16.099908379561143,-1.8556977131031904,0
2.326,2129,4782968,2012,1,1,-13.05680727724561,-1.3910414171884296,0
2.328,2130,4784968,2043,0,1,-8.957383369356867,-0.6935579530842784,0
2.33,2131,4786968,2069,0,1,-5.462424320789627,0.16550839941873896,0
2.332,2132,4788968,2073,0,1,-4.12893237267485,1.1144184652433395,0
2.334,2133,4790968,2065,0,1,-5.463808870211512,2.104598623815709,0
2.336,2134,4792968,2041,0,1,-8.56510040041954,3.119315724105208,0
2.338,2135,4794968,2023,0,1,-11.5679521774006,4.162385783334114,0
2.34,2136,4796968,2025,0,1,-12.5194196219219,5.2357367510977175,0
2.342,2137,4798968,2023,0,1,-10.115931779404772,6.31985097759092,0
2.344,2138,4800968,2009,1,1,-4.135315591023444,7.363428927373972,0
2.346,2139,4802968,2041,1,1,4.206348737092967,8.279782210060112,0
2.348,2140,4804968,2089,0,1,12.270429704413296,8.956063520035798,0
2.35,2141,4806968,2107,0,1,16.98073403789541,9.285030522935775,0
2.352,2142,4808968,2100,0,1,16.351892447413846,9.206837511679506,0
2.354,2143,4810968,2084,0,1,10.453351729059076,8.73436277906312,0
2.356,2144,4812968,2039,0,1,1.3205413037250648,7.949438617871669,0
2.358,2145,4814968,2023,0,1,-7.9901645125403995,6.974023439199801,0
2.36,2146,4816968,2021,0,1,-14.611636733899472,5.9311916291818365,0
2.362,2147,4818968,2008,0,1,-16.669788433580955,4.913994977699452,0
2.364,2148,4820968,2015,1,1,-13.615158011726658,3.9680897100423556,0
2.366,2149,4822968,2014,1,1,-6.420372117695088,3.0845252984368923,0
2.368,2150,4824968,2072,0,1,2.436174906038378,2.205119397984058,0
2.37,2151,4826968,2094,0,1,9.690764018505275,1.2484165240505019,0
2.372,2152,4828968,2095,0,1,12.668300238778478,0.151232395052471,0
2.374,2153,4830968,2083,0,1,10.385642986455714,-1.097550170843268,0
2.376,2154,4832968,2065,0,1,3.754180967495186,-2.447595159496937,0
2.378,2155,4834968,2032,0,1,-4.931523350904064,-3.8001362806926506,0
2.38,2156,4836968,2020,0,1,-12.890084699626447,-5.035593751738144,0
2.382,2157,4838968,2013,0,1,-17.792842353883692,-6.045493506031299,0
2.384,2158,4840968,2009,1,1,-18.389674352406836,-6.757301877312149,0
2.386,2159,4842968,2011,1,1,-14.8060064704771,-7.148158112006615,0
2.388,2160,4844968,2045,0,1,-8.58787932716754,-7.246974057649541,0
2.39,2161,4846968,2071,0,1,-2.24656658546336,-7.120189861525781,0
2.392,2162,4848968,2087,0,1,1.7945589245140297,-6.841690958674098,0
2.394,2163,4850968,2075,0,1,2.3149648365135205,-6.461317109738567,0
2.396,2164,4852968,2056,0,1,-0.22690824647445584,-5.989500458363151,0
2.398,2165,4854968,2035,0,1,-4.072963032325102,-5.404228835496189,0
2.4,2166,4856968,2035,0,1,-7.022877436129331,-4.672280962603496,0
2.402,2167,4858968,2020,0,1,-7.221859541980448,-3.771308661573877,0
2.404,2168,4860968,2006,1,1,-3.777996021417385,-2.7073831519917033,0
2.406,2169,4862968,2037,1,1,2.6518490357670927,-1.52783404291342,0
2.408,2170,4864968,2079,0,1,9.75619910695447,-0.31921472767448344,0
2.41,2171,4866968,2107,0,1,14.52923214250361,0.8200516435737988,0
2.412,2172,4868968,2101,0,1,14.863191080531895,1.8202836347592295,0
2.414,2173,4870968,2076,0,1,10.63705968381643,2.667562406448481,0
2.416,2174,4872968,2055,0,1,3.6881109893308346,3.4019615539221015,0
2.418,2175,4874968,2029,0,1,-3.0451454005258847,4.092553546692507,0
2.42,2176,4876968,2022,0,1,-6.608553207491653,4.803920787577942,0
2.422,2177,4878968,2010,0,1,-4.976740390033212,5.566089925848713,0
2.424,2178,4880968,2005,1,1,2.185490063420434,6.353374972602838,0
2.426,2179,4882968,2059,1,1,13.022986149247146,7.076821541042072,0
2.428,2180,4884968,2105,0,1,23.8311672194299,7.602053088226906,0
2.43,2181,4886968,2131,0,1,30.574459687965046,7.796085656908534,0
2.432,2182,4888968,2121,0,1,30.746227028737998,7.580842476237413,0
2.434,2183,4890968,2091,0,1,24.370720001588044,6.9634851332569045,0
2.436,2184,4892968,2065,0,1,13.760981723091838,6.032017015675638,0
2.438,2185,4894968,2029,0,1,2.4610756340492492,4.924566429994456,0
2.44,2186,4896968,2021,0,1,-6.016564404038188,3.7879682983506493,0
2.442,2187,4898968,2007,0,1,-9.234458358995512,2.7395770273687776,0
2.444,2188,4900968,2011,1,1,-6.492442777140117,1.8410649838791957,0
2.446,2189,4902968,2029,1,1,0.8676581753009706,1.0876466085547651,0
2.448,2190,4904968,2089,0,1,9.721123450836565,0.4178903056198422,0
2.45,2191,4906968,2111,0,1,16.34708213354025,-0.250895234641094,0
2.452,2192,4908968,2107,0,1,18.152097323228098,-0.974320013046114,0
2.454,2193,4910968,2075,0,1,14.75771379150158,-1.7484952785900507,0
2.456,2194,4912968,2055,0,1,7.800755419206061,-2.510458155864418,0
2.458,2195,4914968,2037,0,1,-0.08428279940233963,-3.1629504722455892,0
2.46,2196,4916968,2026,0,1,-6.303568354231374,-3.605447656967644,0
2.462,2197,4918968,2019,0,1,-9.01652677875162,-3.7605342299375435,0
2.464,2198,4920968,2007,1,1,-7.6237737890624135,-3.593493137941534,0
2.466,2199,4922968,2041,1,1,-3.1003959239935064,-3.1235084473822603,0
2.468,2200,4924968,2079,0,1,2.21602121597864,-2.4177978511784155,0
2.47,2201,4926968,2089,0,1,5.71222340502804,-1.563651851538685,0
2.472,2202,4928968,2079,0,1,5.838143623388671,-0.6341196551436656,0
2.474,2203,4930968,2073,0,1,2.7694426728473363,0.3304968104658854,0
2.476,2204,4932968,2043,0,1,-1.756362097095809,1.3200353362173916,0
2.478,2205,4934968,2020,0,1,-5.175512688291986,2.336044976928707,0
2.48,2206,4936968,2029,0,1,-5.136951259086509,3.3655125196748097,0
2.482,2207,4938968,2011,0,1,-0.3948775718803361,4.359499262216514,0
2.484,2208,4940968,2027,1,1,8.622818732898121,5.223740746814578,0
2.486,2209,4942968,2075,1,1,19.592318719653797,5.8234455548287585,0
2.488,2210,4944968,2109,0,1,28.870918951901928,6.010294816176854,0
2.49,2211,4946968,2131,0,1,32.962869972349594,5.6695576998578066,0
2.492,2212,4948968,2116,0,1,30.060962345045734,4.76555177434007,0
2.494,2213,4950968,2087,0,1,20.79251195362555,3.3628175369089632,0
2.496,2214,4952968,2044,0,1,7.860259109939255,1.6140914357133451,0
2.498,2215,4954968,2020,0,1,-5.146866941787873,-0.27849405273393746,0
2.5,2216,4956968,2014,0,1,-15.083377399023064,-2.1111016721350397,0
2.502,2217,4958968,2007,0,1,-20.079376613151187,-3.716454133367039,0
2.504,2218,4960968,2007,1,1,-19.805895851327428,-4.986136655687568,0
2.506,2219,4962968,2022,1,1,-15.46907709466414,-5.879544199611123,0
2.508,2220,4964968,2069,0,1,-9.472971671828706,-6.417584255263574,0
2.51,2221,4966968,2070,0,1,-4.477582842968479,-6.6575619523658975,0
2.512,2222,4968968,2073,0,1,-2.2381162554570886,-6.660523305710186,0
2.514,2223,4970968,2059,0,1,-3.002931870179027,-6.470462676939286,0
2.516,2224,4972968,2041,0,1,-5.669747315515441,-6.112140581686365,0
2.518,2225,4974968,2031,0,1,-8.413780584403076,-5.602421262448292,0
2.52,2226,4976968,2031,0,1,-9.420940385593479,-4.966357434935167,0
2.522,2227,4978968,2021,0,1,-7.430639994584467,-4.2495293113067945,0
2.524,2228,4980968,2014,1,1,-2.158104045426686,-3.5253094482907406,0
2.526,2229,4982968,2053,1,1,5.3196847489101895,-2.8968720472740053,0
2.528,2230,4984968,2077,0,1,12.6691669806706,-2.4847638399913237,0
2.53,2231,4986968,2102,0,1,17.217169443935923,-2.3956054191473775,0
2.532,2232,4988968,2089,0,1,17.150557695456552,-2.6860521593091686,0
2.534,2233,4990968,2084,0,1,12.236600393718385,-3.3411922709093433,0
2.536,2234,4992968,2053,0,1,3.8177233593436406,-4.27507234971686,0
2.538,2235,4994968,2030,0,1,-5.764166426735847,-5.350638193866309,0
2.54,2236,4996968,2024,0,1,-14.022583008658092,-6.411177878330625,0
2.542,2237,4998968,2015,0,1,-19.041661361916756,-7.311243574341163,0
2.544,2238,5000968,2003,1,1,-19.870390250669125,-7.939425215380176,0
2.546,2239,5002968,2011,1,1,-16.81475683928536,-8.234061621795918,0
2.548,2240,5004968,2054,0,1,-11.529154887855016,-8.188303854469803,0
2.55,2241,5006968,2067,0,1,-6.418678517323608,-7.835344172061892,0
2.552,2242,5008968,2076,0,1,-3.484359896869206,-7.218917045042907,0
2.554,2243,5010968,2063,0,1,-3.413550332237133,-6.368505916595059,0
2.556,2244,5012968,2045,0,1,-5.416789284989082,-5.292216298901789,0
2.558,2245,5014968,2031,0,1,-7.740553113412728,-3.9870549081379343,0
2.56,2246,5016968,2029,0,1,-8.473690286430378,-2.457959882367237,0
2.562,2247,5018968,2027,0,1,-6.2167723588469315,-0.7344858286153695,0
2.564,2248,5020968,2023,1,1,-0.5000227966701898,1.1199933360375338,0
2.566,2249,5022968,2028,1,1,7.862239552617175,3.004980624442182,0
2.568,2250,5024968,2083,0,1,16.60146759520176,4.788452301258575,0
2.57,2251,5026968,2121,0,1,22.657678214980592,6.3326697255012085,0
2.572,2252,5028968,2108,0,1,23.736591059049857,7.537782947151175,0
2.574,2253,5030968,2085,0,1,19.568806535899537,8.37509284443092,0
2.576,2254,5032968,2063,0,1,11.913023295625026,8.88766690026549,0
2.578,2255,5034968,2041,0,1,3.6740570795877456,9.165201462143745,0
2.58,2256,5036968,2023,0,1,-2.1347620892586203,9.31025708747414,0
2.582,2257,5038968,2011,0,1,-3.3300870708517776,9.405516066111836,0
2.584,2258,5040968,2017,1,1,0.6562005145557039,9.487940811818984,0
2.586,2259,5042968,2043,1,1,8.35350577309196,9.537403340169444,0
2.588,2260,5044968,2101,0,1,16.599897184025775,9.488714131353579,0
2.59,2261,5046968,2112,0,1,21.868506141921568,9.26881351147326,0
2.592,2262,5048968,2106,0,1,21.923570100399523,8.841442521987783,0
2.594,2263,5050968,2083,0,1,16.71392380199167,8.232373037448337,0
2.596,2264,5052968,2057,0,1,8.158403008495934,7.524907464681561,0
2.598,2265,5054968,2030,0,1,-0.7570881760479571,6.833774517092534,0
2.6,2266,5056968,2020,0,1,-7.080828663467042,6.270043917361575,0
2.602,2267,5058968,2009,0,1,-8.839876203083453,5.908733464097839,0
2.604,2268,5060968,2018,1,1,-5.6545389717653425,5.767186293290495,0
2.606,2269,5062968,2041,1,1,1.0562955116929467,5.798911341852454,0
2.608,2270,5064968,2085,0,1,8.489261755191189,5.907626723783478,0
2.61,2271,5066968,2094,0,1,13.572660724904948,5.980896844120863,0
2.612,2272,5068968,2101,0,1,14.293780959834272,5.929342310183568,0
2.614,2273,5070968,2071,0,1,10.487582396001176,5.7118994752791945,0
2.616,2274,5072968,2055,0,1,3.739540006691838,5.337136288629321,0
2.618,2275,5074968,2029,0,1,-3.3931423960573417,4.844323464260196,0
2.62,2276,5076968,2023,0,1,-8.36442611806547,4.27606386054302,0
2.622,2277,5078968,2021,0,1,-9.419929500773257,3.654419900824622,0
2.624,2278,5080968,2007,1,1,-6.0809306854349625,2.966339668612373,0
2.626,2279,5082968,2038,1,1,0.5461001019653069,2.158696161787039,0
2.628,2280,5084968,2085,0,1,7.900470773041426,1.1488056267393896,0
2.63,2281,5086968,2093,0,1,12.979253724938477,-0.142829691096793,0
2.632,2282,5088968,2087,0,1,13.707686310522485,-1.7519450033946296,0
2.634,2283,5090968,2069,0,1,9.62419926032554,-3.647378464446997,0
2.636,2284,5092968,2058,0,1,1.6895352243818809,-5.732492155666577,0
2.638,2285,5094968,2029,0,1,-8.297420468318574,-7.862503035792436,0
2.64,2286,5096968,2024,0,1,-18.348080343122824,-9.869755803301443,0
2.642,2287,5098968,2019,0,1,-26.78985545694632,-11.589949867585517,0
2.644,2288,5100968,2012,1,1,-32.436997868532586,-12.882254296984444,0
2.646,2289,5102968,1993,1,1,-34.60681624528014,-13.64397232330056,0
2.648,2290,5104968,2011,0,1,-33.292602539840345,-13.8237378069904,0
2.65,2291,5106968,2023,0,1,-29.279749994046234,-13.427799210899291,0
2.652,2292,5108968,2035,0,1,-23.847006944776354,-12.512257411670404,0
2.654,2293,5110968,2043,0,1,-18.228418629170477,-11.165887058839907,0
2.656,2294,5112968,2041,0,1,-13.22408776230688,-9.49319337925603,0
2.658,2295,5114968,2053,0,1,-9.072971492869687,-7.601988640483548,0
2.66,2296,5116968,2035,0,1,-5.51626291687367,-5.595533983081273,0
2.662,2297,5118968,2037,0,1,-2.0738134025055484,-3.570273258499497,0
2.664,2298,5120968,2029,1,1,1.4455858668435937,-1.6193646485454636,0
2.666,2299,5122968,2059,1,1,4.503922512273702,0.16452132446683976,0
2.668,2300,5124968,2077,0,1,5.955834636371542,1.6969659843608493,0
2.67,2301,5126968,2075,0,1,4.803520562579225,2.920660162978159,0
2.672,2302,5128968,2063,0,1,0.968423362199283,3.821585235952477,0
2.674,2303,5130968,2045,0,1,-4.53061732594217,4.429166472495656,0
2.676,2304,5132968,2025,0,1,-10.003934026083904,4.800251259753754,0
2.678,2305,5134968,2030,0,1,-13.763258711362731,4.995746163904386,0
2.68,2306,5136968,2023,0,1,-14.623091084323129,5.060900542978362,0
2.682,2307,5138968,2020,0,1,-12.113993307877468,5.014315161646956,0
2.684,2308,5140968,2021,1,1,-6.664951913082676,4.8425783317434234,0
2.686,2309,5142968,2052,1,1,0.22675776370232326,4.500900613556436,0
2.688,2310,5144968,2079,0,1,6.272547562053761,3.927490530376752,0
2.69,2311,5146968,2087,0,1,9.288397793080687,3.0725568881212295,0
2.692,2312,5148968,2079,0,1,8.174450762892622,1.9277272447804354,0
2.694,2313,5150968,2055,0,1,3.305107709571614,0.5391405790269821,0
2.696,2314,5152968,2041,0,1,-3.821201109212021,-1.0005778832979377,0
2.698,2315,5154968,2028,0,1,-11.30336213599185,-2.57371243184563,0
2.7,2316,5156968,2025,0,1,-17.453524447676877,-4.060553485669789,0
2.702,2317,5158968,2021,0,1,-21.09652291627015,-5.357034691644445,0
2.704,2318,5160968,2012,1,1,-21.66653530595883,-6.38641109210295,0
2.706,2319,5162968,2009,1,1,-19.354550277130283,-7.108010963036934,0
2.708,2320,5164968,2043,0,1,-15.271412292192249,-7.521417556450556,0
2.71,2321,5166968,2059,0,1,-11.162889783372172,-7.657287688972483,0
2.712,2322,5168968,2059,0,1,-8.583870326996983,-7.554744394750742,0
2.714,2323,5170968,2053,0,1,-8.18151273484142,-7.2408267631242715,0
2.716,2324,5172968,2041,0,1,-9.580487017261083,-6.724135540640161,0
2.718,2325,5174968,2037,0,1,-11.722096661842256,-6.0008495229246925,0
2.72,2326,5176968,2029,0,1,-13.313282226178568,-5.065840946517797,0
2.722,2327,5178968,2027,0,1,-13.204635876164328,-3.923724626361036,0
2.724,2328,5180968,2007,1,1,-10.765199207768267,-2.5991571687379507,0
2.726,2329,5182968,2031,1,1,-6.34537041702658,-1.1463651146785723,0
2.728,2330,5184968,2067,0,1,-1.4375802011077106,0.350744974467454,0
2.73,2331,5186968,2079,0,1,1.9966893435099604,1.797775560383009,0
2.732,2332,5188968,2079,0,1,2.6902624395716206,3.119330877766499,0
2.734,2333,5190968,2054,0,1,0.7854561534897306,4.27745200902095,0
2.736,2334,5192968,2039,0,1,-2.345172763977275,5.268346960372472,0
2.738,2335,5194968,2040,0,1,-4.845140849637956,6.104100531178407,0
2.74,2336,5196968,2029,0,1,-5.061842295875449,6.793782052732639,0
2.742,2337,5198968,2017,0,1,-2.0118922865955873,7.3300627719135205,0
2.744,2338,5200968,2027,1,1,4.116072866042729,7.6788100280104254,0
2.746,2339,5202968,2065,1,1,11.617634490924534,7.776966332573448,0
2.748,2340,5204968,2099,0,1,17.715586748206682,7.550594158049043,0
2.75,2341,5206968,2103,0,1,19.81994356444912,6.950907704124643,0
2.752,2342,5208968,2090,0,1,16.760819708643353,5.987353223690335,0
2.754,2343,5210968,2076,0,1,9.245752794797266,4.73899862683988,0
2.756,2344,5212968,2035,0,1,-0.48462422344988787,3.3418918622177483,0
2.758,2345,5214968,2015,0,1,-9.562307904860836,1.9582611189009924,0
2.76,2346,5216968,2019,0,1,-15.58863075942206,0.7384279295447826,0
2.762,2347,5218968,2019,0,1,-17.304802544943293,-0.2078718410994611,0
2.764,2348,5220968,2007,1,1,-14.700568836293318,-0.8242131126959658,0
2.766,2349,5222968,2029,1,1,-9.02485869661194,-1.1112305038389492,0
2.768,2350,5224968,2072,0,1,-2.641113017754935,-1.1201762097583527,0
2.77,2351,5226968,2087,0,1,1.8205285901044723,-0.9275063894131046,0
2.772,2352,5228968,2079,0,1,2.748948440971752,-0.5993985674238029,0
2.774,2353,5230968,2059,0,1,0.28516715923168556,-0.16973161208489795,0
2.776,2354,5232968,2038,0,1,-3.933931041851282,0.3573451366975475,0
2.778,2355,5234968,2036,0,1,-7.60403527591615,0.988569842242546,0
2.78,2356,5236968,2018,0,1,-8.566712231757808,1.7204356060247035,0
2.782,2357,5238968,2019,0,1,-5.434489705438038,2.522678983892679,0
2.784,2358,5240968,2010,1,1,1.8260267236947705,3.326805411631261,0
2.786,2359,5242968,2055,1,1,11.444455109559017,4.023490679327316,0
2.788,2360,5244968,2107,0,1,20.12367067498981,4.480378756519778,0
2.79,2361,5246968,2119,0,1,24.42661877798198,4.58485786503806,0
2.792,2362,5248968,2104,0,1,22.481811927333794,4.291074565172263,0
2.794,2363,5250968,2079,0,1,14.771621702009874,3.6415809262630088,0
2.796,2364,5252968,2045,0,1,3.729029412611549,2.7553301085435113,0
2.798,2365,5254968,2023,0,1,-7.328357392630691,1.793210659703051,0
2.8,2366,5256968,2011,0,1,-15.344270781492973,0.9164922383537655,0
2.802,2367,5258968,2011,0,1,-18.3364991048964,0.25166003063173203,0
2.804,2368,5260968,1993,1,1,-15.830780401709838,-0.13247849191657624,0
2.806,2369,5262968,2032,1,1,-9.108554664059708,-0.23588831336267457,0
2.808,2370,5264968,2077,0,1,-0.9804313217211518,-0.12008956329060005,0
2.81,2371,5266968,2091,0,1,5.3622829572333,0.12417920350216649,0
2.812,2372,5268968,2086,0,1,7.843991712082325,0.41878874531066135,0
2.814,2373,5270968,2066,0,1,6.262714643610318,0.7232414187455727,0
2.816,2374,5272968,2055,0,1,2.0540757046718667,1.0345538457110097,0
2.818,2375,5274968,2031,0,1,-2.466909208821389,1.370814991872356,0
2.82,2376,5276968,2027,0,1,-4.965517123664525,1.7488121669382568,0
2.822,2377,5278968,2021,0,1,-3.841117077387321,2.163324193305103,0
2.824,2378,5280968,2010,1,1,1.1823998758246312,2.5727833144343037,0
2.826,2379,5282968,2054,1,1,8.65804317669659,2.8943036038007968,0
2.828,2380,5284968,2099,0,1,15.673126894931816,3.0175211996851807,0
2.83,2381,5286968,2107,0,1,19.141757489752578,2.842330978568386,0
2.832,2382,5288968,2101,0,1,17.377831326469646,2.3211617414248833,0
2.834,2383,5290968,2072,0,1,10.843458432212413,1.479330271907462,0
2.836,2384,5292968,2039,0,1,1.8004258527301253,0.40551882141422235,0
2.838,2385,5294968,2023,0,1,-6.751400088442674,-0.7793370932855574,0
2.84,2386,5296968,2018,0,1,-12.213853015839181,-1.9587085324664888,0
2.842,2387,5298968,2015,0,1,-13.096549822973852,-3.0478869918033626,0
2.844,2388,5300968,2011,1,1,-9.312904853627964,-4.008474008434706,0
2.846,2389,5302968,2028,1,1,-2.343594935249393,-4.852993551503282,0
2.848,2390,5304968,2089,0,1,4.943749886259641,-5.635354034044917,0
2.85,2391,5306968,2103,0,1,9.367745221647253,-6.418781345685735,0
2.852,2392,5308968,2084,0,1,9.01733531108967,-7.233251625708286,0
2.854,2393,5310968,2057,0,1,4.042107464116193,-8.052981774419989,0
2.856,2394,5312968,2035,0,1,-3.852972444634111,-8.806819699829441,0
2.858,2395,5314968,2034,0,1,-12.443596865646212,-9.406321227788204,0
2.86,2396,5316968,2024,0,1,-19.689568802333206,-9.771862893344663,0
2.862,2397,5318968,2010,0,1,-23.981621189675863,-9.85072654123826,0
2.864,2398,5320968,1994,1,1,-24.38716669933657,-9.632679416627248,0
2.866,2399,5322968,2015,1,1,-21.10047666088532,-9.164350637135376,0
2.868,2400,5324968,2040,0,1,-15.62469669795855,-8.55153251535208,0
2.87,2401,5326968,2069,0,1,-10.192314588461652,-7.939951310977197,0
2.872,2402,5328968,2072,0,1,-6.639179585071238,-7.481036688726947,0
2.874,2403,5330968,2055,0,1,-5.486813992446971,-7.301006218618261,0
2.876,2404,5332968,2040,0,1,-5.840052522861441,-7.488159532179911,0
2.878,2405,5334968,2040,0,1,-6.000569341838294,-8.097490220745124,0
2.88,2406,5336968,2021,0,1,-4.235744806578803,-9.16057807190443,0
2.882,2407,5338968,2019,0,1,0.5162554702624886,-10.694221340381985,0
2.884,2408,5340968,2028,1,1,7.9563068811829485,-12.706516734814336,0
2.886,2409,5342968,2083,1,1,16.13787126044044,-15.191626931831058,0
2.888,2410,5344968,2101,0,1,22.15502410902724,-18.103058891284988,0
2.89,2411,5346968,2104,0,1,23.54014511496998,-21.31416424762205,0
2.892,2412,5348968,2089,0,1,19.352713472428352,-24.590743148276395,0
2.894,2413,5350968,2060,0,1,10.361264843794611,-27.59161174478482,0
2.896,2414,5352968,2031,0,1,-1.5581286890060606,-29.896330489738975,0
2.898,2415,5354968,2024,0,1,-14.369946589844055,-31.05026508716052,0
2.9,2416,5356968,2020,0,1,-26.57220292419757,-30.611956161565256,0
2.902,2417,5358968,2011,0,1,-37.2929941986522,-28.192361020094367,0
2.904,2418,5360968,2004,1,1,-46.03694063015802,-23.487606383569943,0
2.906,2419,5362968,2005,1,1,-52.42971959612173,-16.30965820347388,0
2.908,2420,5364968,1995,0,1,-56.021373531250234,-6.614131028328909,0
2.91,2421,5366968,2005,0,1,-56.13682385513219,5.476842823723739,0
2.912,2422,5368968,2005,0,1,-51.76484027695888,19.658809774021197,0
2.914,2423,5370968,2021,0,1,-41.44458902773792,35.4392331758819,0
2.916,2424,5372968,2031,0,1,-23.192706935847504,52.143379002962725,0
2.918,2425,5374968,2037,0,1,5.351653384095632,68.93112390386112,0
2.92,2426,5376968,2041,0,1,46.2428551620206,84.82142693406136,0
2.922,2427,5378968,2055,0,1,99.75865594174967,98.72259628881764,0
2.924,2428,5380968,2065,1,1,162.20741032142078,109.47144887442988,0
2.926,2429,5382968,2245,1,1,223.91590085380432,115.8976222103882,0
2.928,2430,5384968,2487,0,1,270.007749444835,116.95617793407158,0
2.93,2431,5386968,2547,0,1,285.903678717228,111.94897327069344,0
2.932,2432,5388968,2451,0,1,264.5088284694685,100.75031948621799,0
2.934,2433,5390968,2284,0,1,209.42176524606478,83.90202713323409,0
2.936,2434,5392968,2119,0,1,132.37014735709346,62.531056749092805,0
2.938,2435,5394968,2008,0,1,47.685847064399084,38.150685832944966,0
2.94,2436,5396968,1939,0,1,-32.59247751657131,12.434837338799042,0
2.942,2437,5398968,1927,0,1,-101.01408297036512,-12.97154094473516,0
2.944,2438,5400968,1928,1,1,-154.17100162179412,-36.5802728920021,0
2.946,2439,5402968,1900,1,1,-190.3372644704256,-57.13186780298578,0
2.948,2440,5404968,1779,0,1,-207.46438155363356,-73.64650119786255,0
2.95,2441,5406968,1758,0,1,-203.69306109612862,-85.49197779136068,0
2.952,2442,5408968,1821,0,1,-179.83541352219538,-92.45399932510911,0
2.954,2443,5410968,1899,0,1,-140.85080776993607,-94.74773954206269,0
2.956,2444,5412968,1991,0,1,-94.81872454076841,-92.94368355936587,0
2.958,2445,5414968,2057,0,1,-50.48051835251365,-87.8380581413356,0
2.96,2446,5416968,2089,0,1,-14.844824083538985,-80.31173877150192,0
2.962,2447,5418968,2105,0,1,8.265950325677077,-71.21059017987484,0
2.964,2448,5420968,2077,1,1,18.44495634109474,-61.26570497054044,0
2.966,2449,5422968,2067,1,1,17.889488765054505,-51.05753007749536,0
2.968,2450,5424968,2056,0,1,10.126014775907382,-41.01430763907995,0
2.97,2451,5426968,2031,0,1,-1.0384134966407808,-31.428381960555495,0
2.972,2452,5428968,2024,0,1,-12.169197182074992,-22.481428960828673,0
2.974,2453,5430968,2011,0,1,-20.63295107134181,-14.275374033314016,0
2.976,2454,5432968,2011,0,1,-24.827589562287734,-6.863143636459213,0
2.978,2455,5434968,2024,0,1,-24.183402509767205,-0.2733765433537556,0
2.98,2456,5436968,2025,0,1,-18.937771332629353,5.47451390269309,0
2.982,2457,5438968,2029,0,1,-9.866817098286875,10.363234008039917,0
2.984,2458,5440968,2015,1,1,1.6515380226436012,14.371536893244674,0
2.986,2459,5442968,2076,1,1,13.292917103423676,17.469465681204777,0
2.988,2460,5444968,2111,0,1,22.00585501532846,19.62958642300269,0
2.99,2461,5446968,2117,0,1,25.274800551408035,20.860076139339633,0
2.992,2462,5448968,2089,0,1,22.452670611373495,21.235878948058577,0
2.994,2463,5450968,2066,0,1,14.994386127059146,20.901147707143313,0
2.996,2464,5452968,2055,0,1,5.705414421008052,20.044197738754516,0
2.998,2465,5454968,2025,0,1,-2.2018073984395232,18.86278505596062,0
3.0,2466,5456968,2013,0,1,-5.949641368482816,17.52988365476537,0
3.002,2467,5458968,2014,0,1,-4.009465291165678,16.163538637087584,0
3.004,2468,5460968,2012,1,1,3.2495547058802385,14.807776870871036,0
3.006,2469,5462968,2077,1,1,13.388181303622284,13.432920199263048,0
3.008,2470,5464968,2103,0,1,22.623618152239025,11.962771081318412,0
3.01,2471,5466968,2123,0,1,27.417775057009756,10.323848918253095,0
3.012,2472,5468968,2105,0,1,25.986440187661522,8.492052651330765,0
3.014,2473,5470968,2077,0,1,18.841742791168212,6.513560197946038,0
3.016,2474,5472968,2056,0,1,8.308513657471348,4.495770670958005,0
3.018,2475,5474968,2029,0,1,-2.4713606655896294,2.57898993901204,0
3.02,2476,5476968,2010,0,1,-10.562610746272103,0.9018997359746983,0
3.022,2477,5478968,2013,0,1,-14.086747445227502,-0.4303143052597824,0
3.024,2478,5480968,2011,1,1,-12.732586567072124,-1.3672659711820097,0
3.026,2479,5482968,2041,1,1,-7.7973716910153605,-1.9185360903246016,0
3.028,2480,5484968,2065,0,1,-1.7031591498719574,-2.141055603108311,0
3.03,2481,5486968,2083,0,1,2.9761921227587713,-2.1113844845920413,0
3.032,2482,5488968,2077,0,1,4.578906505313305,-1.8944701281705232,0
3.034,2483,5490968,2059,0,1,2.9120222691313224,-1.5246361675359679,0
3.036,2484,5492968,2055,0,1,-0.9108709581000718,-1.0055840607077076,0
3.038,2485,5494968,2035,0,1,-5.026873786901795,-0.3234064974411601,0
3.04,2486,5496968,2021,0,1,-7.462371939148067,0.5352501433466201,0
3.042,2487,5498968,2019,0,1,-6.823122223192174,1.5633843655927229,0
3.044,2488,5500968,2020,1,1,-2.9164384748711716,2.717649242706951,0
3.046,2489,5502968,2056,1,1,3.000870822165356,3.914387510891611,0
3.048,2490,5504968,2079,0,1,8.643164048298361,5.043799097763962,0
3.05,2491,5506968,2094,0,1,11.745994501340537,5.999555107827716,0
3.052,2492,5508968,2084,0,1,11.166112354489986,6.708999983941275,0
3.054,2493,5510968,2059,0,1,7.358019233697837,7.147280740176451,0
3.056,2494,5512968,2055,0,1,2.058720780151982,7.33037630630475,0
3.058,2495,5514968,2030,0,1,-2.428230755424682,7.295434144812588,0
3.06,2496,5516968,2022,0,1,-3.983284047169491,7.0783212038450145,0
3.062,2497,5518968,2015,0,1,-1.4171757005583587,6.692750634074736,0
3.064,2498,5520968,2024,1,1,4.874762971907101,6.115970083755389,0
3.066,2499,5522968,2077,1,1,12.72085967362949,5.290033092179675,0
3.068,2500,5524968,2104,0,1,18.914006432435293,4.147102176138674,0
3.07,2501,5526968,2105,0,1,20.714926478259706,2.6519052535350376,0
3.072,2502,5528968,2087,0,1,17.08548100907559,0.8359974719274739,0
3.074,2503,5530968,2060,0,1,8.896954834739821,-1.1953333589628743,0
3.076,2504,5532968,2045,0,1,-1.6923906707354628,-3.2813919881547697,0
3.078,2505,5534968,2023,0,1,-12.091008651609988,-5.236513042277805,0
3.08,2506,5536968,2010,0,1,-19.997866719956765,-6.882061949335043,0
3.082,2507,5538968,2013,0,1,-23.924279460959053,-8.074369383784708,0
3.084,2508,5540968,1996,1,1,-23.505742458599023,-8.72464840955016,0
3.086,2509,5542968,2026,1,1,-19.64636178240923,-8.809199505263182,0
3.088,2510,5544968,2057,0,1,-14.30790937371781,-8.36549007136472,0
3.09,2511,5546968,2063,0,1,-9.667801842212242,-7.470025736587117,0
3.092,2512,5548968,2069,0,1,-7.060596082325999,-6.209143791201856,0
3.094,2513,5550968,2046,0,1,-6.437746823604425,-4.660517841656888,0
3.096,2514,5552968,2035,0,1,-6.590552811388176,-2.8923183113900066,0
3.098,2515,5554968,2037,0,1,-5.862350730190666,-0.9746973540216655,0
3.1,2516,5556968,2025,0,1,-2.8548041836121207,1.0078393350435866,0
3.102,2517,5558968,2029,0,1,3.0537584081084646,2.9491615691173947,0
3.104,2518,5560968,2024,1,1,11.219321472233059,4.7182579335875845,0
3.106,2519,5562968,2095,1,1,19.492131734996246,6.165096164777925,0
3.108,2520,5564968,2108,0,1,24.890869008611908,7.147455816986861,0
3.11,2521,5566968,2109,0,1,25.096279523648363,7.573416019598148,0
3.112,2522,5568968,2093,0,1,19.61897511973003,7.432406198355778,0
3.114,2523,5570968,2060,0,1,9.939735603603642,6.7975069660274805,0
3.116,2524,5572968,2037,0,1,-1.1588867081285419,5.80262848371985,0
3.118,2525,5574968,2015,0,1,-10.623151410071133,4.60580237624141,0
3.12,2526,5576968,2013,0,1,-16.08185994979398,3.351746573246669,0
3.122,2527,5578968,2015,0,1,-16.412314495006186,2.144771401757227,0
3.124,2528,5580968,2009,1,1,-11.92950075507527,1.0356880952739007,0
3.126,2529,5582968,2041,1,1,-4.391003533296887,0.020808750362072415,0
3.128,2530,5584968,2079,0,1,3.347027052760076,-0.9442289946600368,0
3.13,2531,5586968,2091,0,1,8.336293114285985,-1.912519668365979,0
3.132,2532,5588968,2085,0,1,8.772052182023952,-2.9089121945170207,0
3.134,2533,5590968,2065,0,1,4.618118344173275,-3.909201109406058,0
3.136,2534,5592968,2041,0,1,-2.641889164137792,-4.843601130429009,0
3.138,2535,5594968,2035,0,1,-10.760112472425744,-5.6174714173154126,0
3.14,2536,5596968,2023,0,1,-17.44207343031958,-6.136330056362962,0
3.142,2537,5598968,2015,0,1,-20.77177771081461,-6.3266255403402045,0
3.144,2538,5600968,1979,1,1,-19.631850307523315,-6.154224088877623,0
3.146,2539,5602968,2024,1,1,-14.361047404188549,-5.642263966203977,0
3.148,2540,5604968,2058,0,1,-7.002636500724529,-4.873916468603968,0
3.15,2541,5606968,2083,0,1,-0.41184735602440536,-3.9662443146002495,0
3.152,2542,5608968,2077,0,1,3.205896152955173,-3.0295392157068894,0
3.154,2543,5610968,2071,0,1,3.198470820890827,-2.138694727301005,0
3.156,2544,5612968,2053,0,1,0.4889284282518167,-1.3264547003965816,0
3.158,2545,5614968,2031,0,1,-2.995947375441615,-0.5939850267376205,0
3.16,2546,5616968,2024,0,1,-5.192343078464405,0.06845103069013359,0
3.162,2547,5618968,2031,0,1,-4.7131704891988955,0.6604888490525607,0
3.164,2548,5620968,2007,1,1,-1.3583456378289853,1.158420205644079,0
3.166,2549,5622968,2065,1,1,3.6556714673164317,1.5114284657739434,0
3.168,2550,5624968,2084,0,1,8.056527211822477,1.6536666097958745,0
3.17,2551,5626968,2087,0,1,9.678189527602985,1.5344143863493636,0
3.172,2552,5628968,2077,0,1,7.60113665210728,1.1466819280239622,0
3.174,2553,5630968,2056,0,1,2.4614762955593443,0.5350868399321018,0
3.176,2554,5632968,2035,0,1,-3.991797386509653,-0.2168382036785279,0
3.178,2555,5634968,2028,0,1,-9.68179392919236,-1.0108309052517221,0
3.18,2556,5636968,2021,0,1,-12.921409036414426,-1.7587538709823736,0
3.182,2557,5638968,2025,0,1,-12.818419935202282,-2.400004696045317,0
3.184,2558,5640968,2011,1,1,-9.468658746628524,-2.9107608168773527,0
3.186,2559,5642968,2040,1,1,-4.114431793463472,-3.3070995603420283,0
3.188,2560,5644968,2079,0,1,1.0205173616528636,-3.636500579949917,0
3.19,2561,5646968,2088,0,1,3.6591785160067145,-3.95111491764306,0
3.192,2562,5648968,2069,0,1,2.6873555018485833,-4.2756269901716895,0
3.194,2563,5650968,2058,0,1,-1.3446845767860667,-4.592928662669002,0
3.196,2564,5652968,2031,0,1,-6.635153822917916,-4.85331622097536,0
3.198,2565,5654968,2023,0,1,-10.970455190717898,-4.996843569379298,0
3.2,2566,5656968,2021,0,1,-12.54201175492155,-4.977235641401814,0
3.202,2567,5658968,2024,0,1,-10.450112628021374,-4.778250162677267,0
3.204,2568,5660968,2009,1,1,-4.9455284583369705,-4.420688023514091,0
3.206,2569,5662968,2053,1,1,2.386908497727965,-3.962680942300654,0
3.208,2570,5664968,2093,0,1,8.897259893629608,-3.485995177843687,0
3.21,2571,5666968,2095,0,1,12.024788070816339,-3.0624410201773946,0
3.212,2572,5668968,2083,0,1,10.617248861916314,-2.7186777950843517,0
3.214,2573,5670968,2063,0,1,5.385704855340183,-2.423582621809537,0
3.216,2574,5672968,2036,0,1,-1.573345710285897,-2.101313917394479,0
3.218,2575,5674968,2029,0,1,-7.683669382523423,-1.6590236674789038,0
3.22,2576,5676968,2015,0,1,-10.764902520150937,-1.0168806620183766,0
3.222,2577,5678968,2020,0,1,-9.637873118660774,-0.13155940933320487,0
3.224,2578,5680968,2013,1,1,-4.493246289850964,0.9896788018810763,0
3.226,2579,5682968,2054,1,1,2.9609723329188835,2.285964864897194,0
3.228,2580,5684968,2093,0,1,9.92501192546943,3.6575315950215552,0
3.23,2581,5686968,2103,0,1,13.742621073993078,5.000164661335519,0
3.232,2582,5688968,2087,0,1,13.268812432737022,6.241806494420363,0
3.234,2583,5690968,2067,0,1,9.381631563124438,7.357850130663386,0
3.236,2584,5692968,2039,0,1,4.459886586234278,8.35985806366009,0
3.238,2585,5694968,2031,0,1,1.322739711894549,9.26877869550527,0
3.24,2586,5696968,2027,0,1,2.1925790704052313,10.087339197958642,0
3.242,2587,5698968,2019,0,1,7.962044035590759,10.781451434372087,0
3.244,2588,5700968,2028,1,1,17.656635797414264,11.271879669207225,0
3.246,2589,5702968,2103,1,1,28.259996129084495,11.440698342136995,0
3.248,2590,5704968,2133,0,1,35.643351109312,11.165351241076081,0
3.25,2591,5706968,2135,0,1,36.52094567643728,10.373905494606657,0
3.252,2592,5708968,2107,0,1,30.040738098971524,9.087729778041671,0
3.254,2593,5710968,2072,0,1,18.012065186706113,7.426878307485405,0
3.256,2594,5712968,2031,0,1,3.971975554414282,5.580822149102577,0
3.258,2595,5714968,2019,0,1,-8.22222905127939,3.7609326606696807,0
3.26,2596,5716968,2007,0,1,-15.59244326129971,2.153777052808409,0
3.262,2597,5718968,2009,0,1,-16.67566031157911,0.88842751588773,0
3.264,2598,5720968,1991,1,1,-11.80831732111952,0.018501797477616044,0
3.266,2599,5722968,2060,1,1,-3.249091909110095,-0.48232968690116174,0
3.268,2600,5724968,2091,0,1,5.405054246666276,-0.7011563644673489,0
3.27,2601,5726968,2104,0,1,10.795730885228895,-0.740909216855183,0
3.272,2602,5728968,2083,0,1,11.338189318918527,-0.6756484628445509,0
3.274,2603,5730968,2069,0,1,7.649713648659741,-0.5322605868305912,0
3.276,2604,5732968,2035,0,1,1.939560370593765,-0.29985104747082225,0
3.278,2605,5734968,2029,0,1,-3.0691009397332913,0.045174362767168574,0
3.28,2606,5736968,2025,0,1,-5.15704463542131,0.5120412988973353,0
3.282,2607,5738968,2026,0,1,-3.2064139292703975,1.0777891002682773,0
3.284,2608,5740968,2011,1,1,2.503625090308826,1.6798073824023745,0
3.286,2609,5742968,2067,0,1,10.09924755818823,2.2164624059231026,0
3.288,2610,5744968,2103,0,1,16.520247427410336,2.565275467608264,0
3.29,2611,5746968,2107,0,1,18.90576157466091,2.6229501829939528,0
3.292,2612,5748968,2095,0,1,16.064568339996146,2.3449796706998463,0
3.294,2613,5750968,2059,0,1,8.947624358328454,1.7591878791299336,0
3.296,2614,5752968,2031,0,1,0.002999416612989636,0.9490253445630874,0
3.298,2615,5754968,2031,0,1,-7.995615554550188,0.01974485932210479,0
3.3,2616,5756968,2011,0,1,-12.900078947040669,-0.9340023965310258,0
3.302,2617,5758968,2023,0,1,-13.64692474729496,-1.849380007415942,0
3.304,2618,5760968,2010,1,1,-10.447421518324589,-2.706281971675905,0
3.306,2619,5762968,2044,0,1,-4.835534190674229,-3.528694793618646,0
3.308,2620,5764968,2079,0,1,0.6887104357481506,-4.371674683907188,0
3.31,2621,5766968,2087,0,1,3.6857504473168072,-5.2911834719008715,0
3.312,2622,5768968,2077,0,1,2.9826132134834173,-6.310364972589092,0
3.314,2623,5770968,2045,0,1,-0.8545274666361498,-7.404051653326412,0
3.316,2624,5772968,2031,0,1,-6.054356919124761,-8.508803551572434,0
3.318,2625,5774968,2024,0,1,-10.647610662011457,-9.547276840135172,0
3.32,2626,5776968,2021,0,1,-13.254050661138077,-10.450677125527417,0
3.322,2627,5778968,2021,0,1,-13.426557067902284,-11.171915180217503,0
3.324,2628,5780968,2028,1,1,-11.717742525173785,-11.69055757951785,0
3.326001,2629,5782969,2060,0,1,-9.474918196354736,-12.00897468343802,0
3.328,2630,5784968,2057,0,1,-8.217335659623938,-12.137663004307388,0
3.33,2631,5786968,2060,0,1,-8.847669734348884,-12.076732826717526,0
3.332,2632,5788968,2045,0,1,-11.225239945169607,-11.80620577413477,0
3.334,2633,5790968,2026,0,1,-14.299300897534346,-11.290369159192377,0
3.336,2634,5792968,2025,0,1,-16.649502490093518,-10.492929384297122,0
3.338,2635,5794968,2025,0,1,-17.06724522870251,-9.39411294828478,0
3.34,2636,5796968,2025,0,1,-14.854630921542137,-8.001143098939567,0
3.342,2637,5798968,2031,0,1,-9.898625279181587,-6.351326180121833,0
3.344,2638,5800968,2013,1,1,-2.801143405228296,-4.512173312086456,0
3.346,2639,5802968,2063,0,1,4.8800624380600075,-2.5795003162963237,0
3.348,2640,5804968,2088,0,1,10.81491896629452,-0.6640389918212772,0
3.35,2641,5806968,2101,0,1,12.927463181131927,1.1391353863826925,0
3.352,2642,5808968,2086,0,1,10.615873131252942,2.782000493939588,0
3.354,2643,5810968,2055,0,1,5.203741944758065,4.273763148133854,0
3.356,2644,5812968,2025,0,1,-0.6541383660756797,5.663528565611902,0
3.358,2645,5814968,2029,0,1,-4.170346822818104,7.006265609677381,0
3.36,2646,5816968,2015,0,1,-3.468726869752711,8.331174758874278,0
3.362,2647,5818968,2029,0,1,1.8671629797929805,9.623573017641794,0
3.364,2648,5820968,2031,1,1,10.564675808668385,10.819840203888335,0
3.366001,2649,5822969,2089,0,1,19.771833601795343,11.816493587429186,0
3.368,2650,5824968,2124,0,1,25.93398654526136,12.499758574898426,0
3.37,2651,5826968,2116,0,1,26.41240377792933,12.790665746814392,0
3.372,2652,5828968,2098,0,1,20.817741618349928,12.68002370871393,0
3.374,2653,5830968,2059,0,1,11.156611580719055,12.231524858999666,0
3.376,2654,5832968,2027,0,1,0.9046160238804997,11.554645131903449,0
3.378,2655,5834968,2020,0,1,-6.360958711945938,10.762947153881264,0
3.38,2656,5836968,2011,0,1,-8.10531860944974,9.936282133273192,0
3.382,2657,5838968,2009,0,1,-3.488450366398794,9.097783153219433,0
3.384,2658,5840968,2019,1,1,6.2513247512806736,8.205233430728969,0
3.386,2659,5842968,2087,0,1,17.768015896337946,7.159703647797457,0
3.388,2660,5844968,2134,0,1,26.607021292062125,5.842531458116239,0
3.39,2661,5846968,2126,0,1,29.222188083469014,4.174973778873454,0
3.392,2662,5848968,2095,0,1,24.614115355257987,2.166006421798296,0
3.394,2663,5850968,2063,0,1,14.41744653494213,-0.08041461405337902,0
3.396,2664,5852968,2031,0,1,1.7699471806509484,-2.393827443943895,0
3.398,2665,5854968,2021,0,1,-10.057535179548957,-4.579796896727833,0
3.4,2666,5856968,2011,0,1,-18.62547957333619,-6.458901118778911,0
3.402,2667,5858968,2011,0,1,-22.726976565384884,-7.893801775114914,0
3.404,2668,5860968,2008,1,1,-22.43371211237367,-8.804413443418397,0
3.406001,2669,5862969,2037,0,1,-18.95838637020867,-9.172394802657259,0
3.408,2670,5864968,2045,0,1,-14.224253840073148,-9.032722296960564,0
3.41,2671,5866968,2063,0,1,-10.13508348052859,-8.453962162134413,0
3.412,2672,5868968,2067,0,1,-7.826128655561038,-7.515666098655299,0
3.414,2673,5870968,2041,0,1,-7.228128706524795,-6.292371862188473,0
3.416,2674,5872968,2039,0,1,-7.230468553873083,-4.851647088588986,0
3.418,2675,5874968,2028,0,1,-6.350245078866795,-3.264353469143787,0
3.42,2676,5876968,2035,0,1,-3.4117139777695935,-1.6158486452507321,0
3.422,2677,5878968,2030,1,1,2.025947596508852,-0.010848849660073379,0
3.424,2678,5880968,2029,1,1,9.352642015314293,1.4269741401471405,0
3.426,2679,5882968,2085,0,1,16.737844361284896,2.5618594804882515,0
3.428,2680,5884968,2109,0,1,21.672925066844773,3.2692267524529868,0
3.43,2681,5886968,2094,0,1,22.275739825543454,3.4733384061635673,0
3.432,2682,5888968,2080,0,1,18.25544905582355,3.1738051164756174,0
3.434,2683,5890968,2065,0,1,10.84928533429131,2.4445104418258965,0
3.436,2684,5892968,2037,0,1,2.1762941701832226,1.4132448152043513,0
3.438,2685,5894968,2029,0,1,-5.5263293761730745,0.23320927968661526,0
3.44,2686,5896968,2019,0,1,-10.601302992226456,-0.9465451109822651,0
3.442,2687,5898968,2029,1,1,-12.382199306050891,-2.0037162225486242,0
3.444,2688,5900968,2019,1,1,-11.25964346655175,-2.854465675837947,0
3.446001,2689,5902969,2052,0,1,-8.525709813948085,-3.4554192635841505,0
3.448,2690,5904968,2068,0,1,-5.904012424083927,-3.7946046162720237,0
3.45,2691,5906968,2057,0,1,-4.743049834895035,-3.872810883305833,0
3.452,2692,5908968,2063,0,1,-5.387689289214821,-3.6880819448541997,0
3.454,2693,5910968,2043,0,1,-7.095932843852694,-3.2326294173537664,0
3.456,2694,5912968,2027,0,1,-8.391735545870233,-2.5006101096202,0
3.458,2695,5914968,2025,0,1,-7.73049451361376,-1.503261043077321,0
3.46,2696,5916968,2029,0,1,-4.198903324795322,-0.2837411246410122,0
3.462,2697,5918968,2027,1,1,2.063156817231216,1.0767145069032633,0
3.464,2698,5920968,2057,1,1,9.727180894259366,2.462784144094426,0
3.466,2699,5922968,2085,0,1,16.541012439416278,3.741062042702355,0
3.468,2700,5924968,2103,0,1,20.18448547574647,4.7895868597323865,0
3.47,2701,5926968,2093,0,1,19.356580573839857,5.530257604213346,0
3.472,2702,5928968,2075,0,1,14.38385674487767,5.946577633804738,0
3.474,2703,5930968,2057,0,1,7.0547351968615954,6.078928100120381,0
3.476,2704,5932968,2027,0,1,-0.08785878528358215,6.002497800229907,0
3.478,2705,5934968,2025,0,1,-4.6618985537215,5.797304617390321,0
3.48,2706,5936968,2019,0,1,-5.251582674525268,5.520635542760694,0
3.482,2707,5938968,2024,1,1,-1.8651563701117206,5.190390644575622,0
3.484,2708,5940968,2053,1,1,4.001673150160252,4.782553825163381,0
3.486001,2709,5942969,2086,0,1,9.839801087086382,4.245619842851502,0
3.488,2710,5944968,2087,0,1,13.173912014381138,3.5303276484423507,0
3.49,2711,5946968,2089,0,1,12.626437914172474,2.6198543447215643,0
3.492,2712,5948968,2063,0,1,8.373237211660324,1.5443127591229242,0
3.494,2713,5950968,2053,0,1,1.9047154372451378,0.3756479543080453,0
3.496,2714,5952968,2025,0,1,-4.645423578822,-0.7917035903234595,0
3.498,2715,5954968,2026,0,1,-9.293316470813897,-1.8659969223825206,0
3.5,2716,5956968,2025,0,1,-10.813375238171991,-2.7798575673161734,0
3.502,2717,5958968,2020,1,1,-9.001856712889724,-3.5022009826782448,0
3.504,2718,5960968,2036,1,1,-4.725733690145761,-4.041001510881709,0
3.506,2719,5962968,2063,0,1,0.2360720473836332,-4.436728776079823,0
3.508,2720,5964968,2078,0,1,3.805991131669166,-4.7430078504495015,0
3.51,2721,5966968,2073,0,1,4.509993089234635,-5.000570428289447,0
3.512,2722,5968968,2072,0,1,2.102870374794082,-5.218862295278284,0
3.514,2723,5970968,2045,0,1,-2.3599811223380707,-5.373072630606945,0
3.516,2724,5972968,2029,0,1,-6.966796456616885,-5.41626724315007,0
3.518,2725,5974968,2024,0,1,-9.728821259853717,-5.301446288537086,0
3.52,2726,5976968,2019,0,1,-9.312671555152864,-5.0030645794875275,0
3.522,2727,5978968,2026,1,1,-5.469820093168749,-4.529903819627322,0
3.524,2728,5980968,2035,1,1,0.8056801878431807,-3.9278287322470895,0
3.526001,2729,5982969,2070,0,1,7.431379329055527,-3.271273197398882,0
3.528,2730,5984968,2100,0,1,11.933342795640868,-2.6405270135039958,0
3.53,2731,5986968,2084,0,1,12.589675599767013,-2.0899888334312617,0
3.532,2732,5988968,2073,0,1,9.256354671504004,-1.6262057284434355,0
